-0.018063
-0.018063
-0.01825
-0.018063
-0.018063
-0.018313
-0.01825
-0.018313
-0.0185
-0.018562
-0.018375
-0.0185
-0.018375
-0.018687
-0.018375
-0.018687
-0.018562
-0.018562
-0.01875
-0.018562
-0.018562
-0.018687
-0.019063
-0.01925
-0.018812
-0.018625
-0.018938
-0.019063
-0.019125
-0.019312
-0.01925
-0.0195
-0.019437
-0.019375
-0.019437
-0.019312
-0.019125
-0.0195
-0.0195
-0.0195
-0.019312
-0.019437
-0.019687
-0.019687
-0.019875
-0.019813
-0.019625
-0.019687
-0.019938
-0.019875
-0.019938
-0.020312
-0.020188
-0.020312
-0.020437
-0.02025
-0.020125
-0.02025
-0.020312
-0.020688
-0.0205
-0.020375
-0.020688
-0.020625
-0.02075
-0.0205
-0.020625
-0.020875
-0.020562
-0.020875
-0.020562
-0.020938
-0.020875
-0.021063
-0.021125
-0.020938
-0.020813
-0.020938
-0.0215
-0.021125
-0.021063
-0.02125
-0.021375
-0.021125
-0.0215
-0.021187
-0.021312
-0.021187
-0.021625
-0.021312
-0.021187
-0.021312
-0.021437
-0.021312
-0.021312
-0.021375
-0.021437
-0.021312
-0.021813
-0.021562
-0.021625
-0.021562
-0.021562
-0.021625
-0.021312
-0.0215
-0.0215
-0.02125
-0.0215
-0.021562
-0.021875
-0.022
-0.021688
-0.021625
-0.021938
-0.021813
-0.021938
-0.022
-0.021875
-0.022062
-0.022
-0.022187
-0.02225
-0.022
-0.022187
-0.0225
-0.022125
-0.022187
-0.02225
-0.022312
-0.022625
-0.022187
-0.0225
-0.02275
-0.022563
-0.022563
-0.0225
-0.022437
-0.022375
-0.022813
-0.023
-0.022625
-0.022437
-0.022813
-0.02275
-0.022813
-0.023187
-0.023187
-0.022813
-0.022625
-0.022813
-0.02325
-0.023
-0.023
-0.023125
-0.022875
-0.023125
-0.022875
-0.023375
-0.023187
-0.023187
-0.0235
-0.023062
-0.023375
-0.023312
-0.023375
-0.023187
-0.02325
-0.023312
-0.023312
-0.02325
-0.023312
-0.023312
-0.023312
-0.023563
-0.02375
-0.023688
-0.023625
-0.023625
-0.023438
-0.023688
-0.023875
-0.024
-0.023625
-0.023875
-0.024187
-0.024062
-0.023563
-0.024
-0.02425
-0.024438
-0.024062
-0.024062
-0.02425
-0.0245
-0.024375
-0.024438
-0.024625
-0.024813
-0.02425
-0.024625
-0.024438
-0.024688
-0.024312
-0.024375
-0.0245
-0.0245
-0.024563
-0.024813
-0.024688
-0.024563
-0.024937
-0.02475
-0.025062
-0.024875
-0.024688
-0.02475
-0.024813
-0.02475
-0.024937
-0.025062
-0.024875
-0.024937
-0.025062
-0.024813
-0.02475
-0.024875
-0.025375
-0.02475
-0.025187
-0.025438
-0.025187
-0.025062
-0.024937
-0.025125
-0.025062
-0.024688
-0.02475
-0.025
-0.025
-0.025
-0.025187
-0.025375
-0.025062
-0.025125
-0.025313
-0.025563
-0.0255
-0.02575
-0.025563
-0.025375
-0.025563
-0.025313
-0.025438
-0.025438
-0.026
-0.025875
-0.025313
-0.025438
-0.025313
-0.025688
-0.025812
-0.025688
-0.025937
-0.025688
-0.02575
-0.025688
-0.02575
-0.025563
-0.02575
-0.025688
-0.0255
-0.025688
-0.025875
-0.025812
-0.02575
-0.025313
-0.025812
-0.02575
-0.025563
-0.025438
-0.0255
-0.02575
-0.025688
-0.0255
-0.025625
-0.025313
-0.025563
-0.0255
-0.025625
-0.025688
-0.025625
-0.02575
-0.02525
-0.0255
-0.025375
-0.025625
-0.025375
-0.025812
-0.02575
-0.025563
-0.02525
-0.025187
-0.02525
-0.025313
-0.025563
-0.02575
-0.025563
-0.025625
-0.025563
-0.025563
-0.025438
-0.025625
-0.025625
-0.025625
-0.025812
-0.025375
-0.02575
-0.025375
-0.025812
-0.025688
-0.02575
-0.025812
-0.025625
-0.025812
-0.025563
-0.025563
-0.025937
-0.02575
-0.026
-0.02525
-0.025438
-0.025375
-0.025375
-0.0255
-0.0255
-0.025125
-0.025187
-0.025062
-0.02525
-0.0255
-0.02525
-0.025313
-0.025313
-0.025313
-0.024813
-0.024813
-0.024625
-0.024875
-0.024937
-0.025062
-0.024875
-0.025062
-0.024625
-0.0245
-0.0245
-0.024438
-0.024375
-0.02475
-0.024312
-0.024312
-0.02425
-0.024375
-0.024062
-0.024125
-0.024187
-0.023813
-0.023688
-0.02375
-0.02375
-0.0235
-0.0235
-0.023563
-0.0235
-0.023438
-0.023062
-0.023438
-0.02325
-0.023187
-0.022875
-0.022938
-0.022813
-0.02225
-0.022312
-0.0225
-0.022375
-0.022187
-0.02225
-0.022062
-0.021688
-0.021875
-0.021625
-0.021813
-0.0215
-0.021688
-0.021375
-0.020813
-0.020875
-0.020813
-0.02075
-0.020312
-0.020688
-0.019938
-0.019687
-0.019625
-0.0195
-0.01975
-0.019375
-0.019375
-0.019188
-0.019
-0.018625
-0.018562
-0.018313
-0.01825
-0.018063
-0.017625
-0.0175
-0.017063
-0.017063
-0.016937
-0.01675
-0.0165
-0.01625
-0.016313
-0.015875
-0.01575
-0.015625
-0.01525
-0.014875
-0.014625
-0.014937
-0.0145
-0.013938
-0.013875
-0.013187
-0.0135
-0.012938
-0.0125
-0.012687
-0.01225
-0.011875
-0.012187
-0.012
-0.01175
-0.011312
-0.011125
-0.010937
-0.01025
-0.010188
-0.0099375
-0.0093125
-0.009375
-0.0094375
-0.009
-0.008375
-0.00825
-0.00825
-0.0076875
-0.007625
-0.0075625
-0.00725
-0.0068125
-0.006375
-0.006375
-0.0059375
-0.0056875
-0.0055625
-0.0054375
-0.0048125
-0.00425
-0.0044375
-0.00425
-0.0038125
-0.0035
-0.0034375
-0.00325
-0.003
-0.00225
-0.002125
-0.0020625
-0.0018125
-0.0016875
-0.001625
-0.000375
-0.0005
-0.000125
-6.25e-05
0.0003125
0.0005625
0.000875
0.001125
0.001375
0.0016875
0.0016875
0.00225
0.0023125
0.0021875
0.0026875
0.00325
0.003375
0.0036875
0.004125
0.0041875
0.0045
0.0045625
0.0050625
0.00525
0.0053125
0.005625
0.0054375
0.0059375
0.006375
0.006125
0.00675
0.00675
0.007125
0.0074375
0.0075
0.0079375
0.0081875
0.008375
0.008375
0.0089375
0.0089375
0.0089375
0.0093125
0.0091875
0.0096875
0.01
0.0099375
0.010437
0.010437
0.010437
0.01075
0.011125
0.011625
0.011312
0.0115
0.011688
0.012125
0.011937
0.012125
0.012625
0.012687
0.01275
0.012875
0.013312
0.013187
0.0135
0.01375
0.014062
0.014125
0.014062
0.014625
0.014813
0.014625
0.015125
0.01525
0.015125
0.015437
0.0155
0.015375
0.015562
0.016
0.016062
0.016188
0.0165
0.016625
0.016625
0.017063
0.016875
0.017313
0.017438
0.017438
0.017687
0.017812
0.017438
0.017375
0.01775
0.017938
0.018313
0.018125
0.018437
0.018375
0.018875
0.018562
0.018625
0.018625
0.019
0.018938
0.019
0.019312
0.019063
0.019562
0.019625
0.0195
0.019188
0.019625
0.019625
0.02
0.020063
0.020312
0.020312
0.020375
0.020188
0.020625
0.020562
0.02025
0.020875
0.020813
0.02075
0.021063
0.021063
0.021312
0.021
0.02125
0.0215
0.0215
0.021312
0.0215
0.021688
0.021688
0.021938
0.022125
0.021688
0.021813
0.022
0.022
0.021875
0.021813
0.022062
0.02225
0.0225
0.022312
0.022375
0.0225
0.022375
0.022625
0.022875
0.022938
0.022688
0.02275
0.02275
0.023
0.02225
0.022938
0.02275
0.022938
0.02275
0.022938
0.022875
0.022813
0.023187
0.022938
0.023125
0.023062
0.023187
0.023125
0.022875
0.022875
0.02325
0.02325
0.023187
0.023125
0.02325
0.023062
0.022875
0.023125
0.023375
0.023312
0.0235
0.023375
0.023688
0.023688
0.023312
0.0235
0.023625
0.0235
0.0235
0.023563
0.023438
0.0235
0.023625
0.023563
0.0235
0.023625
0.023625
0.0235
0.023312
0.024125
0.023813
0.023563
0.023688
0.0235
0.023563
0.023563
0.023563
0.02375
0.023688
0.023625
0.023563
0.0235
0.023688
0.023375
0.024
0.023813
0.023563
0.023688
0.023438
0.023438
0.023438
0.023062
0.023375
0.02325
0.0235
0.02325
0.023187
0.023187
0.023062
0.023438
0.0235
0.023187
0.02325
0.023438
0.022875
0.023
0.023062
0.023187
0.023187
0.023
0.023062
0.023125
0.023062
0.022938
0.022813
0.023
0.023125
0.023125
0.022625
0.022625
0.022875
0.023125
0.022625
0.022875
0.022813
0.022625
0.022563
0.022437
0.022875
0.0225
0.022625
0.022688
0.022938
0.022625
0.022437
0.022813
0.022625
0.022437
0.022563
0.022563
0.0225
0.022187
0.02275
0.022312
0.022625
0.022563
0.02225
0.022437
0.022062
0.02225
0.0225
0.022312
0.022375
0.022312
0.022187
0.022062
0.021938
0.021875
0.022062
0.021938
0.021938
0.021688
0.021875
0.021688
0.021875
0.021813
0.021688
0.021562
0.021688
0.021688
0.021375
0.02175
0.021813
0.0215
0.0215
0.021437
0.02125
0.02125
0.02125
0.021312
0.021063
0.021187
0.021063
0.021
0.02125
0.021063
0.02125
0.020875
0.021063
0.020875
0.021063
0.020938
0.020875
0.020938
0.021125
0.020562
0.020938
0.020562
0.0205
0.0205
0.020688
0.020875
0.021125
0.020688
0.0205
0.020437
0.0205
0.020625
0.020437
0.020562
0.020562
0.020188
0.020562
0.0205
0.020437
0.0205
0.020437
0.020625
0.020188
0.020375
0.020312
0.020063
0.019687
0.020375
0.01975
0.020125
0.02
0.019875
0.019562
0.019687
0.020063
0.019437
0.019375
0.019687
0.019562
0.019
0.019375
0.01975
0.01975
0.01925
0.019625
0.019
0.019
0.018938
0.019125
0.019125
0.019312
0.019188
0.019188
0.019063
0.018938
0.019063
0.019188
0.018938
0.019
0.018938
0.018687
0.018687
0.018437
0.018812
0.018938
0.018812
0.018875
0.018938
0.018625
0.018687
0.018562
0.018625
0.018562
0.018875
0.018687
0.018375
0.018063
0.0185
0.018625
0.018375
0.018437
0.018375
0.018188
0.017938
0.018562
0.018063
0.018375
0.018188
0.018125
0.018188
0.017875
0.01825
0.018
0.017875
0.017875
0.017812
0.017875
0.01775
0.017812
0.018
0.017562
0.017812
0.017375
0.017625
0.017188
0.017375
0.017812
0.0175
0.017438
0.017188
0.017375
0.01725
0.017
0.017375
0.017188
0.017063
0.017063
0.017
0.017125
0.01675
0.017
0.017
0.016875
0.016937
0.016875
0.017125
0.01675
0.016875
0.016937
0.016812
0.016625
0.0165
0.016625
0.016188
0.016313
0.016625
0.016438
0.01625
0.016562
0.016313
0.016313
0.0165
0.016375
0.016188
0.01625
0.01625
0.016062
0.01575
0.015937
0.01625
0.016125
0.016188
0.016125
0.016
0.015812
0.016062
0.016
0.016062
0.015687
0.015625
0.015625
0.015437
0.0155
0.015437
0.015625
0.015437
0.015125
0.01525
0.015313
0.014813
0.015125
0.015188
0.014813
0.015062
0.014813
0.014875
0.01475
0.014625
0.015125
0.014687
0.014937
0.014875
0.014687
0.014625
0.014187
0.014687
0.0145
0.014375
0.014375
0.014562
0.014313
0.014375
0.014375
0.014375
0.014187
0.014313
0.014062
0.013938
0.014
0.014125
0.01425
0.014
0.014187
0.014125
0.014062
0.01375
0.014375
0.014062
0.013938
0.013562
0.013813
0.013813
0.013312
0.013375
0.013875
0.013625
0.013562
0.01375
0.0135
0.013438
0.013625
0.013687
0.013813
0.013187
0.0135
0.013125
0.0135
0.013125
0.013125
0.013312
0.012938
0.012938
0.012938
0.013
0.012687
0.013125
0.013125
0.012687
0.013063
0.012687
0.012625
0.012438
0.012812
0.012563
0.012375
0.012187
0.012438
0.0125
0.012375
0.012438
0.012125
0.01225
0.012187
0.01225
0.012125
0.012
0.011688
0.011688
0.012
0.01175
0.011688
0.011688
0.011812
0.011688
0.01175
0.011875
0.011625
0.011625
0.01175
0.011688
0.0115
0.011688
0.011563
0.011375
0.011437
0.0115
0.011563
0.011125
0.011437
0.011375
0.011437
0.011312
0.011
0.0115
0.01125
0.011
0.011125
0.011312
0.01125
0.011
0.010812
0.011063
0.010562
0.0105
0.010812
0.010688
0.010875
0.01075
0.010625
0.010562
0.010188
0.010562
0.0105
0.010313
0.01025
0.010313
0.010188
0.0099375
0.010313
0.010125
0.009875
0.01
0.009875
0.0099375
0.0098125
0.009875
0.0099375
0.01
0.0099375
0.0098125
0.01
0.00975
0.0096875
0.00975
0.0095625
0.009625
0.00925
0.0096875
0.0094375
0.0093125
0.009375
0.009125
0.0095
0.0090625
0.0090625
0.009125
0.0091875
0.0094375
0.0089375
0.0094375
0.0089375
0.0091875
0.0090625
0.0088125
0.0089375
0.0090625
0.0089375
0.008875
0.008875
0.0085625
0.0086875
0.0085625
0.009
0.0085625
0.0086875
0.0086875
0.0085
0.0085625
0.00825
0.0081875
0.00825
0.008
0.0081875
0.008
0.0076875
0.0075
0.0079375
0.0079375
0.007625
0.00775
0.0076875
0.0074375
0.0073125
0.007875
0.007625
0.0075
0.0075
0.0075
0.0071875
0.00725
0.007375
0.0071875
0.00725
0.0068125
0.0071875
0.007125
0.007
0.00675
0.0070625
0.0066875
0.0069375
0.0068125
0.0066875
0.006875
0.00675
0.0065625
0.00675
0.00675
0.00675
0.0065
0.0061875
0.0064375
0.006375
0.0064375
0.0061875
0.00625
0.0060625
0.006375
0.0060625
0.006125
0.006125
0.0059375
0.005875
0.0059375
0.005875
0.0055625
0.00575
0.0055
0.0056875
0.0055625
0.00575
0.00575
0.0055
0.005375
0.0055625
0.0055
0.0051875
0.005125
0.00525
0.0050625
0.004625
0.0050625
0.004625
0.004875
0.0046875
0.0045
0.004625
0.004125
0.004625
0.0041875
0.004125
0.004375
0.0045
0.00425
0.004125
0.0045625
0.0043125
0.004
0.004125
0.004125
0.00425
0.003625
0.00375
0.0039375
0.00375
0.0035625
0.0036875
0.003875
0.0031875
0.0036875
0.003875
0.0035
0.003625
0.0035
0.00325
0.0034375
0.003125
0.0033125
0.00325
0.0031875
0.0031875
0.0031875
0.00275
0.0031875
0.0031875
0.003125
0.003125
0.0029375
0.0028125
0.0026875
0.0023125
0.002875
0.002625
0.002625
0.0026875
0.0025625
0.00275
0.0025
0.002625
0.0025
0.0025625
0.0025
0.0024375
0.0020625
0.0020625
0.0020625
0.0025625
0.002125
0.0020625
0.002
0.0019375
0.0018125
0.0019375
0.0018125
0.0019375
0.00175
0.001875
0.001625
0.0015625
0.0015
0.00175
0.0016875
0.0013125
0.0015625
0.00125
0.00175
0.0010625
0.0015
0.0015625
0.0011875
0.00125
0.00125
0.001125
0.001375
0.001
0.0014375
0.001
0.001125
0.00125
0.001
0.001
0.0006875
0.0011875
0.001
0.0011875
0.0011875
0.0010625
0.0006875
0.0009375
0.0014375
0.001125
0.0010625
0.00075
0.000875
0.0004375
0.0004375
0.0009375
0.000875
0.001
0.001125
0.001125
0.0005
0.0005
0.000875
0.0005625
0.000875
0.00075
0.00075
0.000625
0.0005625
6.25e-05
0.0005
0.0004375
0.0004375
0.000375
0.0003125
6.25e-05
6.25e-05
0.0004375
0.0005625
0.000375
0.00025
0.00025
0.0004375
0.000125
0.0004375
0.0003125
0.0001875
0.000375
-6.25e-05
6.25e-05
0.0003125
0.00025
0.0001875
0.0004375
-0
0.000125
0.0005
0.0001875
0.00025
0.00025
0.00025
0.0005
0.000125
0.000125
0.000375
0.000125
0.000375
0.0005
0.0003125
0.0001875
0.0005625
0.000375
6.25e-05
0.000375
0.0004375
0.000375
0.0003125
0.0005625
0.0005625
-0
0.0004375
0.0005
0.0004375
0.0004375
0.0001875
0.0005
0.0005625
0.00025
0.0005
6.25e-05
0.0003125
0.0003125
0.000375
0.0006875
0.000125
0.0006875
0.0005625
0.00075
0.0005
0.0003125
0.0004375
0.0001875
0.000625
0.00075
0.0005
0.0005
0.00075
0.0005625
0.0003125
0.0005
0.000875
0.0004375
0.001
0.00075
0.00075
0.0005625
0.0004375
0.00075
0.00075
0.0006875
0.000625
0.0010625
0.00075
0.001
0.0008125
0.0010625
0.000875
0.0011875
0.0008125
0.001125
0.000625
0.000625
0.00125
0.00125
0.001
0.0010625
0.001125
0.00075
0.001125
0.0014375
0.001125
0.0011875
0.0015
0.001125
0.001125
0.0010625
0.0011875
0.0013125
0.0013125
0.0014375
0.0011875
0.0014375
0.001625
0.0016875
0.0018125
0.0016875
0.0015
0.0015
0.00175
0.001375
0.0015625
0.0014375
0.0018125
0.001625
0.0014375
0.0018125
0.001625
0.0015
0.00175
0.00175
0.001625
0.0015
0.0014375
0.001625
0.001625
0.002125
0.0016875
0.0019375
0.0015625
0.001625
0.0014375
0.001625
0.0020625
0.00175
0.0015625
0.001625
0.0018125
0.001625
0.0019375
0.0020625
0.0023125
0.0020625
0.0018125
0.002125
0.00175
0.0019375
0.0019375
0.0020625
0.001875
0.0019375
0.002375
0.00225
0.0021875
0.0019375
0.0023125
0.0021875
0.002
0.002375
0.0024375
0.002125
0.0020625
0.0026875
0.0025
0.002125
0.0025
0.0026875
0.00225
0.0023125
0.0024375
0.0025625
0.0025
0.0023125
0.0026875
0.0026875
0.0024375
0.0023125
0.00275
0.0026875
0.0025
0.00225
0.0025
0.0025
0.0021875
0.0025625
0.0028125
0.0023125
0.0025
0.0025
0.002625
0.0023125
0.0024375
0.0026875
0.0026875
0.002625
0.002625
0.0025
0.0024375
0.00275
0.00275
0.0024375
0.0025625
0.00225
0.0025
0.0025
0.0025625
0.003125
0.0030625
0.0026875
0.0029375
0.0030625
0.0026875
0.00275
0.0025625
0.0030625
0.002875
0.0026875
0.0029375
0.0030625
0.0030625
0.0029375
0.0031875
0.0029375
0.003
0.0030625
0.0029375
0.0030625
0.0031875
0.0034375
0.0031875
0.0030625
0.0030625
0.003
0.003125
0.003125
0.0030625
0.00325
0.00275
0.0033125
0.00325
0.0030625
0.0028125
0.0029375
0.0033125
0.00325
0.0030625
0.003125
0.003
0.0030625
0.003
0.0029375
0.003125
0.0029375
0.0030625
0.0029375
0.0031875
0.003
0.003
0.003
0.003
0.0028125
0.003
0.003125
0.00275
0.003
0.003125
0.0030625
0.00275
0.003
0.0030625
0.0029375
0.0030625
0.003
0.0033125
0.0028125
0.0028125
0.002625
0.002875
0.00275
0.0029375
0.0033125
0.003
0.0029375
0.0029375
0.003125
0.002875
0.002875
0.00275
0.003
0.003125
0.0031875
0.003375
0.003125
0.0030625
0.003125
0.0031875
0.00275
0.002875
0.0029375
0.00275
0.0029375
0.002875
0.003125
0.0030625
0.00325
0.003
0.0028125
0.003
0.0031875
0.0031875
0.003
0.0028125
0.002875
0.0028125
0.0029375
0.002875
0.0029375
0.00275
0.0028125
0.002875
0.00275
0.002625
0.002375
0.003125
0.002875
0.0029375
0.00275
0.0029375
0.0025
0.0025625
0.0028125
0.0026875
0.00275
0.0025625
0.0026875
0.002625
0.0026875
0.0030625
0.0029375
0.0025625
0.002375
0.00275
0.00275
0.0026875
0.0026875
0.00275
0.002625
0.0025
0.0024375
0.0024375
0.0023125
0.0025
0.0025625
0.0025625
0.00275
0.002625
0.002375
0.0024375
0.0026875
0.002625
0.0021875
0.002375
0.0025625
0.002625
0.002
0.0024375
0.002625
0.0021875
0.002625
0.0025
0.0025625
0.0025625
0.0023125
0.0025
0.002625
0.0023125
0.0023125
0.00225
0.0023125
0.0020625
0.0020625
0.0024375
0.0021875
0.0020625
0.00225
0.0020625
0.001875
0.0023125
0.002375
0.002125
0.00225
0.00225
0.0019375
0.001625
0.0018125
0.00225
0.00175
0.0019375
0.00175
0.00175
0.001625
0.00175
0.0019375
0.0018125
0.0016875
0.0019375
0.001875
0.002
0.0015625
0.0018125
0.00175
0.00175
0.0016875
0.00175
0.001875
0.001375
0.001625
0.0016875
0.001625
0.0015625
0.00175
0.001625
0.0015625
0.0014375
0.001625
0.0018125
0.00175
0.0016875
0.001625
0.0011875
0.0015625
0.001875
0.0013125
0.0014375
0.0015
0.001875
0.0013125
0.001125
0.001625
0.0018125
0.0015625
0.0015
0.001375
0.0018125
0.0010625
0.0013125
0.0015625
0.0014375
0.001125
0.0009375
0.0013125
0.0011875
0.0011875
0.0015
0.0010625
0.001125
0.0009375
0.0011875
0.001
0.000875
0.001125
0.001125
0.0010625
0.000875
0.00075
0.000875
0.0006875
0.000875
0.00075
0.0009375
0.000875
0.000875
0.000625
0.0006875
0.0004375
0.0005625
0.0006875
0.0006875
0.000625
0.0006875
0.000375
0.0005625
0.000875
0.00075
0.00075
0.00075
0.0004375
0.0004375
0.00075
0.0005
0.0005625
0.0004375
0.0004375
0.0005
6.25e-05
0.0003125
0.0004375
0.0005
0.0004375
0.0003125
6.25e-05
6.25e-05
-6.25e-05
0.000375
0.0001875
0.00025
0.0004375
0.00025
-0.00025
6.25e-05
6.25e-05
-0
6.25e-05
-0.0003125
-0.00025
-0.00025
-6.25e-05
-0.0003125
6.25e-05
-0
-0.0005
-0.0003125
-0.000375
-0.0005625
-0.000375
-0.00025
-0.0004375
-0.0005
-0.0003125
-0.00025
-0.0010625
-0.000875
-0.0004375
-0.0009375
-0.000875
-0.00075
-0.000875
-0.0008125
-0.0005625
-0.0004375
-0.000625
-0.000875
-0.000875
-0.000875
-0.000875
-0.001125
-0.0009375
-0.0006875
-0.000625
-0.0010625
-0.0009375
-0.00125
-0.0013125
-0.001
-0.0009375
-0.0009375
-0.001125
-0.0006875
-0.001125
-0.00125
-0.001
-0.0011875
-0.0013125
-0.0014375
-0.00125
-0.001375
-0.001625
-0.0015
-0.001125
-0.0014375
-0.001625
-0.0015
-0.0011875
-0.0015625
-0.0016875
-0.0014375
-0.0015
-0.0015
-0.0018125
-0.0015625
-0.002
-0.0019375
-0.001875
-0.00175
-0.002125
-0.0019375
-0.0021875
-0.0019375
-0.0016875
-0.001875
-0.001875
-0.00225
-0.00225
-0.0020625
-0.00225
-0.00225
-0.0025
-0.002125
-0.0023125
-0.002625
-0.0024375
-0.0025
-0.0026875
-0.0025625
-0.002125
-0.0023125
-0.002375
-0.002375
-0.0025625
-0.0025
-0.0028125
-0.0025
-0.00225
-0.0029375
-0.002875
-0.0025
-0.0029375
-0.003
-0.0025625
-0.0025
-0.003
-0.003125
-0.00275
-0.00275
-0.003125
-0.0028125
-0.002875
-0.002875
-0.0030625
-0.0030625
-0.0033125
-0.003125
-0.003375
-0.003125
-0.0034375
-0.003
-0.0030625
-0.003
-0.0035625
-0.00325
-0.0030625
-0.0031875
-0.003375
-0.0035625
-0.003375
-0.0036875
-0.003625
-0.0035
-0.0035
-0.0034375
-0.003625
-0.0035625
-0.0035625
-0.0036875
-0.0040625
-0.0040625
-0.0039375
-0.0039375
-0.003875
-0.0039375
-0.00425
-0.00375
-0.00375
-0.003875
-0.00425
-0.0039375
-0.00425
-0.0041875
-0.004375
-0.004125
-0.0044375
-0.0041875
-0.0043125
-0.0038125
-0.004625
-0.004625
-0.0045625
-0.00425
-0.0045
-0.004375
-0.0045
-0.0045
-0.0049375
-0.0045
-0.004375
-0.004625
-0.0045625
-0.004875
-0.0045
-0.0043125
-0.0043125
-0.0045
-0.0044375
-0.00475
-0.0048125
-0.00475
-0.0050625
-0.004625
-0.00475
-0.00475
-0.0049375
-0.0051875
-0.0050625
-0.005
-0.0049375
-0.0048125
-0.005125
-0.0051875
-0.005125
-0.0050625
-0.0053125
-0.0051875
-0.0050625
-0.0053125
-0.005625
-0.005625
-0.0055625
-0.0054375
-0.0056875
-0.0055
-0.00575
-0.005625
-0.00575
-0.0054375
-0.0059375
-0.0059375
-0.005375
-0.005625
-0.0056875
-0.00575
-0.0058125
-0.006
-0.005875
-0.0056875
-0.006
-0.0061875
-0.006125
-0.0060625
-0.0060625
-0.006125
-0.0065
-0.006
-0.006
-0.006375
-0.00625
-0.00625
-0.006375
-0.0064375
-0.00625
-0.0060625
-0.0064375
-0.0064375
-0.006375
-0.006375
-0.00675
-0.006375
-0.0065
-0.0066875
-0.006625
-0.0065
-0.0065625
-0.0066875
-0.0064375
-0.006625
-0.007125
-0.0068125
-0.006625
-0.006875
-0.0070625
-0.0068125
-0.0066875
-0.0068125
-0.0071875
-0.0070625
-0.0069375
-0.0070625
-0.00725
-0.0068125
-0.0070625
-0.0074375
-0.00725
-0.007
-0.00725
-0.00775
-0.0070625
-0.0075
-0.0074375
-0.0075625
-0.0075
-0.0078125
-0.007625
-0.007125
-0.007875
-0.007875
-0.0076875
-0.0078125
-0.0079375
-0.008
-0.0076875
-0.0080625
-0.0080625
-0.0079375
-0.0080625
-0.00825
-0.0080625
-0.0080625
-0.0083125
-0.0084375
-0.0080625
-0.008
-0.00825
-0.0083125
-0.0084375
-0.007875
-0.0083125
-0.0083125
-0.0084375
-0.0081875
-0.0085
-0.0083125
-0.008125
-0.008625
-0.0086875
-0.0086875
-0.00875
-0.0085625
-0.0085
-0.0085625
-0.0088125
-0.0088125
-0.009
-0.0086875
-0.0091875
-0.0089375
-0.009
-0.008625
-0.009
-0.0089375
-0.00875
-0.0089375
-0.0091875
-0.0089375
-0.009125
-0.0093125
-0.0090625
-0.0091875
-0.0091875
-0.009375
-0.00925
-0.0093125
-0.00925
-0.0094375
-0.0093125
-0.0094375
-0.0095625
-0.00975
-0.00925
-0.009625
-0.009375
-0.010062
-0.0098125
-0.0096875
-0.010062
-0.0096875
-0.009875
-0.010188
-0.0096875
-0.009625
-0.009875
-0.01025
-0.010188
-0.010062
-0.010125
-0.01025
-0.010313
-0.010125
-0.010562
-0.010375
-0.010437
-0.010188
-0.01025
-0.010375
-0.010375
-0.010625
-0.010562
-0.010437
-0.01
-0.01025
-0.010562
-0.010562
-0.010625
-0.01075
-0.01075
-0.010313
-0.01025
-0.010688
-0.010688
-0.01075
-0.010937
-0.01125
-0.010688
-0.011063
-0.010812
-0.011063
-0.010625
-0.010812
-0.010875
-0.01125
-0.01075
-0.010625
-0.010875
-0.010875
-0.010937
-0.01125
-0.010937
-0.011063
-0.010875
-0.011312
-0.011312
-0.011375
-0.011375
-0.011563
-0.011437
-0.011312
-0.011375
-0.011688
-0.011437
-0.011563
-0.011937
-0.011812
-0.011688
-0.011625
-0.011812
-0.012
-0.011812
-0.012125
-0.012125
-0.012063
-0.011688
-0.011625
-0.011688
-0.012312
-0.011875
-0.011937
-0.012125
-0.012125
-0.011937
-0.012063
-0.011937
-0.011937
-0.012125
-0.0125
-0.012187
-0.011875
-0.012312
-0.012312
-0.012312
-0.012312
-0.012438
-0.012312
-0.01225
-0.01225
-0.01225
-0.012375
-0.012563
-0.012938
-0.012812
-0.012125
-0.0125
-0.012438
-0.012375
-0.012125
-0.012563
-0.012938
-0.012312
-0.012625
-0.0125
-0.01275
-0.012687
-0.012687
-0.013
-0.012875
-0.01275
-0.01275
-0.013187
-0.013187
-0.013063
-0.013125
-0.013312
-0.012875
-0.013063
-0.01325
-0.013312
-0.013375
-0.013562
-0.013687
-0.01325
-0.0135
-0.0135
-0.013875
-0.013438
-0.013687
-0.013875
-0.013438
-0.013438
-0.013562
-0.01375
-0.0135
-0.013438
-0.013562
-0.013938
-0.01375
-0.013687
-0.01375
-0.014125
-0.013687
-0.013813
-0.013687
-0.01375
-0.01375
-0.013938
-0.014062
-0.013938
-0.013813
-0.014062
-0.013625
-0.014
-0.01425
-0.014062
-0.014062
-0.014062
-0.014
-0.013938
-0.014062
-0.014313
-0.014187
-0.014187
-0.014187
-0.014187
-0.014062
-0.013687
-0.014313
-0.014125
-0.014313
-0.01425
-0.014375
-0.014375
-0.014438
-0.014375
-0.01425
-0.0145
-0.0145
-0.01475
-0.014687
-0.014813
-0.014562
-0.0145
-0.014687
-0.014813
-0.014875
-0.015
-0.014625
-0.014625
-0.014813
-0.015188
-0.014937
-0.014813
-0.014937
-0.015
-0.01475
-0.015125
-0.015188
-0.015062
-0.015062
-0.015437
-0.015188
-0.01475
-0.015188
-0.015313
-0.015062
-0.01525
-0.015313
-0.015562
-0.01525
-0.015
-0.015125
-0.01525
-0.0155
-0.015062
-0.015
-0.015313
-0.015375
-0.015125
-0.0155
-0.01525
-0.015062
-0.015812
-0.015562
-0.015562
-0.01525
-0.015375
-0.015062
-0.015313
-0.0155
-0.015313
-0.015437
-0.015437
-0.015625
-0.0155
-0.015625
-0.015687
-0.01575
-0.0155
-0.015562
-0.015562
-0.015875
-0.015687
-0.015687
-0.016062
-0.015562
-0.016062
-0.01575
-0.015875
-0.015687
-0.016125
-0.016062
-0.015937
-0.015875
-0.016062
-0.016
-0.016188
-0.01625
-0.016062
-0.0165
-0.016
-0.016
-0.01625
-0.016062
-0.01625
-0.01625
-0.0165
-0.016562
-0.016313
-0.016125
-0.015937
-0.016188
-0.016313
-0.016313
-0.016375
-0.01625
-0.016313
-0.016438
-0.016313
-0.0165
-0.0165
-0.016562
-0.016438
-0.016313
-0.0165
-0.01625
-0.016375
-0.016562
-0.016562
-0.01625
-0.01625
-0.016687
-0.016687
-0.016562
-0.016562
-0.016937
-0.016375
-0.0165
-0.016625
-0.016438
-0.016438
-0.016438
-0.016625
-0.01675
-0.016375
-0.016687
-0.01675
-0.016937
-0.016812
-0.016937
-0.017063
-0.016625
-0.016812
-0.017125
-0.017
-0.016937
-0.016937
-0.017188
-0.017313
-0.017
-0.016937
-0.01725
-0.017313
-0.017063
-0.017375
-0.017063
-0.016937
-0.017438
-0.017625
-0.017375
-0.01725
-0.017
-0.01725
-0.017
-0.017188
-0.017313
-0.017562
-0.01725
-0.017375
-0.017562
-0.017063
-0.017188
-0.0175
-0.017375
-0.017
-0.017375
-0.017313
-0.016875
-0.01725
-0.017438
-0.0175
-0.017313
-0.017188
-0.0175
-0.0175
-0.017313
-0.017313
-0.017438
-0.017562
-0.017438
-0.017562
-0.017687
-0.0175
-0.0175
-0.017687
-0.017438
-0.017687
-0.017562
-0.017812
-0.017625
-0.017625
-0.017812
-0.01775
-0.017687
-0.017687
-0.017812
-0.018063
-0.01775
-0.017938
-0.017938
-0.018188
-0.018125
-0.018188
-0.018
-0.018063
-0.017938
-0.01775
-0.018063
-0.018125
-0.018
-0.01825
-0.017938
-0.018063
-0.018188
-0.018125
-0.018063
-0.018188
-0.017938
-0.018125
-0.018063
-0.018063
-0.018437
-0.018063
-0.018
-0.018063
-0.018375
-0.01825
-0.018063
-0.018188
-0.018313
-0.017938
-0.018313
-0.018313
-0.017687
-0.018188
-0.018313
-0.018188
-0.018063
-0.018625
-0.018437
-0.018063
-0.018063
-0.01825
-0.0185
-0.018625
-0.0185
-0.01875
-0.018313
-0.018313
-0.0185
-0.018313
-0.018375
-0.018375
-0.018125
-0.018313
-0.01825
-0.018313
-0.018625
-0.018562
-0.018562
-0.018687
-0.01875
-0.018938
-0.018687
-0.0185
-0.0185
-0.01875
-0.018687
-0.018812
-0.018375
-0.018625
-0.0185
-0.018938
-0.019
-0.019125
-0.018938
-0.0185
-0.018687
-0.019
-0.019125
-0.018938
-0.018562
-0.018938
-0.019312
-0.019125
-0.018812
-0.01925
-0.018875
-0.019063
-0.019063
-0.019063
-0.018812
-0.01875
-0.018938
-0.019125
-0.01925
-0.018938
-0.018938
-0.019188
-0.01875
-0.019063
-0.019
-0.019188
-0.019063
-0.018938
-0.018938
-0.018875
-0.019125
-0.019188
-0.019
-0.019312
-0.019188
-0.019125
-0.019
-0.019188
-0.019063
-0.01925
-0.019188
-0.019063
-0.019125
-0.018875
-0.019125
-0.019125
-0.019125
-0.019437
-0.019312
-0.019437
-0.019562
-0.0195
-0.019437
-0.019437
-0.019125
-0.0195
-0.019813
-0.019562
-0.019687
-0.019562
-0.019625
-0.019562
-0.01975
-0.019813
-0.019813
-0.01975
-0.019562
-0.0195
-0.019813
-0.019875
-0.019625
-0.01975
-0.019687
-0.019687
-0.019938
-0.019625
-0.019875
-0.019813
-0.019687
-0.020188
-0.019562
-0.019437
-0.02
-0.019875
-0.019813
-0.019562
-0.02025
-0.020125
-0.019687
-0.019813
-0.019938
-0.019938
-0.019625
-0.019875
-0.019562
-0.019562
-0.020063
-0.020063
-0.019875
-0.02
-0.02025
-0.020063
-0.01975
-0.020125
-0.019875
-0.019875
-0.019875
-0.02
-0.020125
-0.019687
-0.019875
-0.02
-0.01975
-0.020125
-0.019687
-0.020063
-0.02
-0.01975
-0.020125
-0.02
-0.020063
-0.02025
-0.020562
-0.020125
-0.02
-0.02025
-0.020562
-0.020375
-0.02025
-0.020375
-0.020375
-0.020125
-0.0205
-0.020312
-0.020875
-0.02025
-0.0205
-0.0205
-0.020375
-0.0205
-0.020188
-0.020437
-0.02025
-0.020312
-0.020625
-0.020312
-0.020312
-0.0205
-0.020625
-0.020562
-0.020562
-0.020437
-0.0205
-0.0205
-0.020562
-0.020875
-0.020688
-0.0205
-0.020625
-0.02075
-0.02025
-0.020375
-0.02075
-0.020625
-0.020375
-0.020562
-0.020813
-0.020375
-0.02075
-0.02075
-0.02075
-0.020625
-0.020688
-0.020938
-0.02075
-0.020938
-0.020375
-0.020688
-0.020625
-0.020625
-0.020688
-0.020875
-0.020938
-0.021
-0.020813
-0.021
-0.021
-0.020938
-0.020938
-0.021125
-0.020813
-0.02075
-0.021125
-0.021312
-0.021187
-0.021375
-0.021187
-0.020813
-0.020875
-0.021187
-0.021437
-0.021437
-0.021437
-0.021375
-0.0215
-0.021063
-0.0215
-0.021625
-0.021375
-0.021
-0.021187
-0.021187
-0.021187
-0.021187
-0.021375
-0.021437
-0.0215
-0.021125
-0.021625
-0.021312
-0.0215
-0.021688
-0.021625
-0.0215
-0.021375
-0.021375
-0.021125
-0.0215
-0.021437
-0.021375
-0.0215
-0.021437
-0.021562
-0.021312
-0.0215
-0.021625
-0.021562
-0.02125
-0.021562
-0.021437
-0.021625
-0.0215
-0.021437
-0.021688
-0.021688
-0.021437
-0.02175
-0.021813
-0.021562
-0.02175
-0.021625
-0.022062
-0.021813
-0.022062
-0.021813
-0.021688
-0.022
-0.02175
-0.021938
-0.021875
-0.021875
-0.0225
-0.021688
-0.021688
-0.022187
-0.022
-0.021938
-0.022187
-0.02225
-0.022187
-0.022062
-0.02225
-0.02225
-0.022125
-0.022125
-0.022062
-0.022062
-0.02175
-0.021938
-0.022187
-0.02225
-0.022312
-0.022125
-0.022375
-0.022187
-0.022062
-0.022125
-0.022
-0.022062
-0.022125
-0.022125
-0.022187
-0.021938
-0.022062
-0.022062
-0.022312
-0.02225
-0.022187
-0.022
-0.022125
-0.022375
-0.022062
-0.022062
-0.022125
-0.0225
-0.022312
-0.022062
-0.022125
-0.022125
-0.022312
-0.022187
-0.022062
-0.022312
-0.022312
-0.022312
-0.022563
-0.022312
-0.0225
-0.022375
-0.022625
-0.022563
-0.0225
-0.022437
-0.0225
-0.022187
-0.0225
-0.022563
-0.02275
-0.022375
-0.022437
-0.022938
-0.022563
-0.0225
-0.0225
-0.02275
-0.022563
-0.0225
-0.023
-0.023062
-0.02275
-0.02275
-0.022813
-0.023
-0.022437
-0.022813
-0.023125
-0.022938
-0.022625
-0.022688
-0.022875
-0.022563
-0.022625
-0.023062
-0.023062
-0.022875
-0.02275
-0.022938
-0.023
-0.022875
-0.023187
-0.022813
-0.02275
-0.023125
-0.022938
-0.022813
-0.023125
-0.022875
-0.023125
-0.023
-0.023062
-0.023438
-0.022875
-0.022813
-0.023062
-0.023062
-0.022938
-0.023312
-0.023187
-0.023125
-0.02325
-0.022875
-0.023375
-0.023438
-0.023438
-0.023438
-0.023375
-0.023187
-0.023125
-0.023688
-0.023438
-0.0235
-0.0235
-0.0235
-0.023187
-0.023375
-0.023625
-0.023625
-0.023563
-0.0235
-0.023937
-0.023563
-0.023187
-0.023688
-0.023187
-0.023375
-0.023625
-0.023625
-0.02375
-0.023813
-0.023625
-0.023688
-0.0235
-0.023813
-0.02375
-0.023563
-0.023875
-0.02375
-0.023813
-0.023688
-0.023813
-0.023688
-0.023688
-0.024062
-0.023625
-0.023937
-0.023563
-0.023563
-0.02375
-0.023688
-0.024
-0.024
-0.023875
-0.023937
-0.024
-0.024
-0.023875
-0.024
-0.023937
-0.024062
-0.023875
-0.02375
-0.0235
-0.023875
-0.023688
-0.023875
-0.02375
-0.023875
-0.02425
-0.024
-0.023937
-0.024062
-0.024187
-0.02425
-0.024
-0.024062
-0.02425
-0.024688
-0.024375
-0.024438
-0.024438
-0.023875
-0.024062
-0.0245
-0.024062
-0.024375
-0.024438
-0.024375
-0.024375
-0.024062
-0.02425
-0.024375
-0.0245
-0.024375
-0.024312
-0.024187
-0.02425
-0.0245
-0.0245
-0.024375
-0.024375
-0.024563
-0.024875
-0.024375
-0.02425
-0.024312
-0.024375
-0.024563
-0.024438
-0.024312
-0.0245
-0.02425
-0.024563
-0.024625
-0.024312
-0.024625
-0.024625
-0.024438
-0.024375
-0.024813
-0.024688
-0.024375
-0.024438
-0.024813
-0.024563
-0.0245
-0.02425
-0.02475
-0.024563
-0.024563
-0.02475
-0.024688
-0.0245
-0.024375
-0.024312
-0.0245
-0.024688
-0.024563
-0.024937
-0.024688
-0.024688
-0.024875
-0.024688
-0.024563
-0.025062
-0.024937
-0.024937
-0.024625
-0.024813
-0.024875
-0.024625
-0.025125
-0.025187
-0.025313
-0.024937
-0.02525
-0.024813
-0.024625
-0.024937
-0.025187
-0.025375
-0.025125
-0.024813
-0.024563
-0.024937
-0.024813
-0.02475
-0.02475
-0.025313
-0.02475
-0.024813
-0.024875
-0.024937
-0.024813
-0.024875
-0.025062
-0.024688
-0.024688
-0.024937
-0.0245
-0.0245
-0.02475
-0.024813
-0.02475
-0.024625
-0.02475
-0.02475
-0.024688
-0.025187
-0.024875
-0.024688
-0.024688
-0.025062
-0.025
-0.024875
-0.024875
-0.024875
-0.025
-0.024688
-0.024688
-0.024688
-0.024563
-0.024688
-0.024563
-0.024875
-0.02475
-0.024563
-0.0245
-0.024688
-0.024375
-0.0245
-0.024688
-0.024688
-0.02425
-0.024688
-0.024375
-0.024375
-0.024438
-0.024813
-0.0245
-0.0245
-0.024563
-0.024563
-0.024125
-0.0245
-0.024375
-0.024062
-0.02425
-0.023875
-0.02375
-0.023875
-0.023875
-0.023875
-0.023937
-0.023813
-0.023438
-0.023688
-0.023937
-0.023625
-0.023563
-0.023625
-0.023375
-0.023187
-0.023062
-0.023062
-0.022813
-0.02275
-0.0225
-0.022625
-0.022375
-0.0225
-0.022187
-0.02225
-0.022125
-0.022125
-0.022125
-0.02175
-0.021938
-0.021875
-0.021813
-0.02125
-0.021437
-0.021
-0.020813
-0.020813
-0.020688
-0.020625
-0.020375
-0.020437
-0.02025
-0.0205
-0.020063
-0.019938
-0.019813
-0.0195
-0.019375
-0.019063
-0.019375
-0.0185
-0.018562
-0.01875
-0.018687
-0.018375
-0.01825
-0.018063
-0.017812
-0.017313
-0.017375
-0.017438
-0.017125
-0.016438
-0.016687
-0.016562
-0.016062
-0.01575
-0.015812
-0.015437
-0.015
-0.015062
-0.015062
-0.0145
-0.014313
-0.014313
-0.01425
-0.013938
-0.0135
-0.0135
-0.013187
-0.012375
-0.012563
-0.012
-0.011937
-0.011688
-0.012
-0.011563
-0.010812
-0.010625
-0.010562
-0.01025
-0.0098125
-0.0096875
-0.009625
-0.0091875
-0.0089375
-0.0086875
-0.008625
-0.008375
-0.00825
-0.007625
-0.0075
-0.007
-0.0065625
-0.0065625
-0.0064375
-0.0063125
-0.006
-0.0058125
-0.0054375
-0.0051875
-0.005125
-0.004625
-0.0045625
-0.0044375
-0.0043125
-0.003625
-0.00325
-0.00325
-0.0029375
-0.0024375
-0.0023125
-0.0024375
-0.002
-0.0015625
-0.0015625
-0.00125
-0.001125
-0.000625
-0.0005625
-6.25e-05
0.000125
0.0003125
0.000625
0.00075
0.001125
0.001
0.0015625
0.0021875
0.0021875
0.0020625
0.0023125
0.0026875
0.00275
0.003125
0.0034375
0.0035
0.0035625
0.004
0.0040625
0.0045
0.0045
0.005375
0.005125
0.0053125
0.0055625
0.006
0.006125
0.006
0.006625
0.00675
0.0070625
0.0066875
0.007625
0.00775
0.0079375
0.0080625
0.0085
0.0084375
0.008875
0.0090625
0.0089375
0.009375
0.0093125
0.0095625
0.0096875
0.009625
0.010313
0.010313
0.010188
0.01025
0.010812
0.010937
0.011
0.011063
0.01125
0.011375
0.011375
0.011563
0.011812
0.012125
0.012375
0.012312
0.012375
0.012625
0.013
0.013
0.012938
0.012938
0.013375
0.013125
0.01325
0.013938
0.01375
0.013813
0.01425
0.013938
0.0145
0.01425
0.014875
0.014813
0.01475
0.015125
0.015062
0.015125
0.01525
0.0155
0.015625
0.015562
0.01575
0.015687
0.016062
0.01575
0.015937
0.016313
0.016313
0.016625
0.016438
0.016937
0.01675
0.016875
0.017188
0.017063
0.017063
0.017438
0.017313
0.017375
0.01725
0.017625
0.01775
0.017812
0.017438
0.017812
0.017687
0.0175
0.018125
0.018063
0.018063
0.018125
0.018375
0.018125
0.018
0.017875
0.018562
0.018313
0.018687
0.018562
0.018625
0.0185
0.018562
0.018875
0.018625
0.01875
0.018812
0.018625
0.019063
0.018687
0.019
0.018938
0.018875
0.018938
0.019188
0.019063
0.019125
0.01925
0.019625
0.019188
0.019125
0.019562
0.019625
0.01925
0.019375
0.01975
0.019562
0.019625
0.019938
0.01975
0.019625
0.0195
0.019938
0.01975
0.019625
0.019687
0.019875
0.019813
0.019875
0.01975
0.019938
0.020063
0.019687
0.020063
0.020188
0.019875
0.019687
0.020188
0.020125
0.020063
0.020125
0.019938
0.02
0.019562
0.019437
0.01975
0.019875
0.01975
0.019938
0.020063
0.01975
0.019562
0.020125
0.019687
0.020125
0.019938
0.019938
0.01975
0.019437
0.020063
0.01975
0.019875
0.01975
0.02
0.019938
0.01925
0.019625
0.019813
0.01975
0.019687
0.019813
0.0195
0.0195
0.01925
0.019437
0.019375
0.019312
0.019437
0.019625
0.019437
0.019562
0.019562
0.01925
0.019562
0.019312
0.019375
0.019437
0.019375
0.019437
0.019437
0.019437
0.01925
0.019375
0.01925
0.019437
0.018875
0.01925
0.019375
0.019437
0.019312
0.019188
0.019063
0.018687
0.019125
0.019188
0.019
0.018875
0.018812
0.018687
0.018875
0.018812
0.018875
0.018875
0.018812
0.018812
0.018375
0.018437
0.018125
0.01875
0.0185
0.018313
0.018313
0.018437
0.018
0.018063
0.018562
0.018375
0.018313
0.018188
0.018188
0.018313
0.017875
0.017812
0.018
0.018125
0.017687
0.017938
0.017562
0.01775
0.017562
0.017687
0.017625
0.017438
0.017625
0.017313
0.0175
0.0175
0.017562
0.017625
0.01725
0.017313
0.017687
0.017375
0.017313
0.017188
0.017438
0.017188
0.01725
0.016875
0.017188
0.016937
0.016625
0.017063
0.01675
0.017125
0.016875
0.017063
0.016562
0.016937
0.016687
0.016562
0.016875
0.01675
0.016188
0.016313
0.016438
0.016438
0.016313
0.016125
0.015875
0.016062
0.016062
0.015937
0.01575
0.016
0.015812
0.016062
0.015625
0.015687
0.015437
0.015625
0.0155
0.015625
0.015437
0.015375
0.015313
0.015437
0.014937
0.014813
0.015437
0.01525
0.015
0.015375
0.015062
0.014937
0.014625
0.014937
0.014937
0.015062
0.014813
0.014562
0.01475
0.0145
0.014875
0.014562
0.014625
0.014625
0.014562
0.014313
0.013938
0.014187
0.014375
0.01425
0.014125
0.014438
0.013875
0.013687
0.014
0.014
0.014
0.013562
0.013875
0.013938
0.01375
0.013938
0.013813
0.0135
0.0135
0.01375
0.013562
0.013312
0.013375
0.01325
0.013187
0.01325
0.013125
0.013125
0.013125
0.012687
0.013125
0.013312
0.01325
0.01275
0.012812
0.01275
0.0125
0.012625
0.012687
0.01275
0.012312
0.012375
0.012312
0.012438
0.012125
0.012375
0.01225
0.011937
0.012125
0.012625
0.012063
0.012187
0.01175
0.011875
0.011937
0.012
0.011937
0.011937
0.01175
0.011937
0.011688
0.012
0.011625
0.011875
0.011812
0.011688
0.011437
0.011188
0.011688
0.011688
0.011437
0.0115
0.011375
0.011312
0.011312
0.011312
0.011188
0.011188
0.011063
0.011125
0.011
0.011063
0.010812
0.010625
0.011063
0.011125
0.010875
0.010562
0.010625
0.010437
0.010437
0.010437
0.0105
0.010562
0.010625
0.010188
0.010313
0.0099375
0.0099375
0.010437
0.010437
0.010188
0.01
0.009875
0.010125
0.00975
0.0098125
0.0098125
0.009625
0.00975
0.0099375
0.0094375
0.0094375
0.0095625
0.0098125
0.0095625
0.0095
0.0094375
0.0094375
0.0095
0.0094375
0.0091875
0.009625
0.0095625
0.0091875
0.0094375
0.0094375
0.009125
0.008875
0.009125
0.0089375
0.009125
0.0090625
0.0089375
0.0090625
0.0086875
0.0089375
0.009
0.0091875
0.00875
0.0089375
0.009
0.0085625
0.0085625
0.0085625
0.0084375
0.008
0.0086875
0.008625
0.0084375
0.0083125
0.008625
0.0085
0.0084375
0.00775
0.0081875
0.008375
0.00775
0.0076875
0.008125
0.0081875
0.0079375
0.0080625
0.0076875
0.00775
0.007375
0.007625
0.0079375
0.0074375
0.0079375
0.007375
0.007625
0.00725
0.0076875
0.007625
0.0075
0.00725
0.0070625
0.007125
0.007
0.0069375
0.007625
0.00725
0.0071875
0.007
0.006875
0.007125
0.0066875
0.0069375
0.0070625
0.007
0.0069375
0.0066875
0.0065625
0.0064375
0.0065
0.006625
0.006625
0.0065
0.0066875
0.00675
0.0065
0.006375
0.0065
0.006625
0.006125
0.0063125
0.00625
0.00575
0.0060625
0.0061875
0.006125
0.006
0.006125
0.0063125
0.00625
0.0056875
0.0060625
0.005875
0.0058125
0.005875
0.005875
0.0053125
0.0058125
0.0055
0.005375
0.0055625
0.005625
0.0055625
0.005625
0.0051875
0.0053125
0.005125
0.0055
0.0051875
0.0050625
0.0050625
0.0051875
0.005
0.00475
0.005125
0.0049375
0.0048125
0.0046875
0.0049375
0.0050625
0.0044375
0.004875
0.00475
0.004625
0.0044375
0.004625
0.0046875
0.0044375
0.0044375
0.00475
0.00475
0.004875
0.0041875
0.0046875
0.0043125
0.0043125
0.0043125
0.0044375
0.0040625
0.004375
0.0039375
0.0039375
0.004
0.004125
0.0038125
0.0039375
0.004125
0.003875
0.0034375
0.003375
0.0039375
0.003625
0.003625
0.003625
0.0038125
0.0034375
0.003625
0.0034375
0.0034375
0.00325
0.0035625
0.003375
0.0030625
0.0030625
0.0028125
0.0031875
0.003125
0.0031875
0.00325
0.0026875
0.00275
0.002625
0.0026875
0.002625
0.0025
0.002625
0.0026875
0.0023125
0.0025
0.0025625
0.002375
0.002125
0.0018125
0.002375
0.002125
0.001875
0.00175
0.0023125
0.0023125
0.002125
0.0019375
0.0021875
0.0019375
0.0018125
0.0018125
0.00175
0.001875
0.001625
0.001625
0.0014375
0.00125
0.001125
0.0016875
0.001375
0.0015
0.0014375
0.0013125
0.001375
0.001
0.0015625
0.001375
0.001125
0.0009375
0.001125
0.000625
0.0010625
0.000875
0.0008125
0.0008125
0.0006875
0.0006875
0.000625
0.000625
0.0004375
0.000875
0.0005625
0.000375
0.00025
0.00025
0.0004375
6.25e-05
0.00025
0.000375
6.25e-05
-0.0003125
-0
-6.25e-05
-0.000375
-0.000375
-0.00025
-0.0003125
-0.000875
-0.000375
-0.0001875
-0.00075
-0.0008125
-0.0004375
-0.000875
-0.00075
-0.0008125
-0.0010625
-0.0010625
-0.00125
-0.001
-0.001125
-0.0011875
-0.00125
-0.001125
-0.0010625
-0.001375
-0.0014375
-0.0015
-0.001375
-0.0014375
-0.0015
-0.001625
-0.0016875
-0.001875
-0.0015625
-0.00175
-0.002
-0.0020625
-0.0016875
-0.00225
-0.0023125
-0.001875
-0.0019375
-0.002375
-0.0021875
-0.0019375
-0.0025625
-0.0025
-0.00225
-0.0021875
-0.0025625
-0.002375
-0.002625
-0.0025625
-0.0028125
-0.002875
-0.00225
-0.0025625
-0.002375
-0.00275
-0.0026875
-0.0028125
-0.003125
-0.003
-0.0030625
-0.0031875
-0.0033125
-0.003375
-0.003375
-0.003625
-0.0034375
-0.0034375
-0.0035625
-0.0036875
-0.003125
-0.0035625
-0.003875
-0.0036875
-0.004
-0.004125
-0.0039375
-0.0039375
-0.0039375
-0.00425
-0.0043125
-0.0039375
-0.004125
-0.0041875
-0.00425
-0.004375
-0.0041875
-0.00425
-0.0044375
-0.0043125
-0.0043125
-0.0045
-0.00475
-0.0045625
-0.00475
-0.0049375
-0.0045
-0.0049375
-0.005
-0.004875
-0.004625
-0.00475
-0.0046875
-0.0046875
-0.00475
-0.0049375
-0.005
-0.0046875
-0.005
-0.005125
-0.004875
-0.005
-0.005125
-0.00525
-0.005125
-0.00525
-0.0051875
-0.005375
-0.00475
-0.005125
-0.0053125
-0.0053125
-0.0053125
-0.0053125
-0.005625
-0.0056875
-0.0055625
-0.0051875
-0.0056875
-0.005625
-0.0055
-0.00575
-0.0060625
-0.0056875
-0.0056875
-0.0058125
-0.00575
-0.0060625
-0.006
-0.00625
-0.005875
-0.0059375
-0.006125
-0.0058125
-0.005875
-0.00625
-0.006125
-0.006125
-0.0059375
-0.00625
-0.006
-0.00625
-0.006125
-0.0061875
-0.00625
-0.0059375
-0.006
-0.0061875
-0.0063125
-0.006375
-0.0065
-0.0064375
-0.0064375
-0.006375
-0.006375
-0.0065
-0.0063125
-0.006375
-0.00675
-0.00625
-0.005875
-0.006375
-0.0063125
-0.0061875
-0.00625
-0.0065625
-0.006375
-0.0059375
-0.0064375
-0.0061875
-0.00625
-0.006375
-0.006125
-0.0065625
-0.0065625
-0.0061875
-0.006375
-0.00625
-0.00675
-0.0061875
-0.0065
-0.006875
-0.006625
-0.006625
-0.0065625
-0.0065
-0.00675
-0.0063125
-0.0068125
-0.0064375
-0.0065
-0.006625
-0.0066875
-0.0066875
-0.00675
-0.0069375
-0.0068125
-0.006375
-0.00675
-0.0064375
-0.0066875
-0.0065
-0.0068125
-0.006875
-0.006625
-0.006375
-0.0066875
-0.0068125
-0.0065
-0.0065625
-0.006625
-0.0065
-0.0063125
-0.00675
-0.006625
-0.006625
-0.006625
-0.006625
-0.0065625
-0.0061875
-0.006
-0.006625
-0.006625
-0.0065
-0.0061875
-0.0063125
-0.00625
-0.0064375
-0.00625
-0.0063125
-0.0061875
-0.0063125
-0.006375
-0.006125
-0.0064375
-0.006125
-0.0060625
-0.006375
-0.006375
-0.006375
-0.00625
-0.0060625
-0.00625
-0.0060625
-0.006
-0.006125
-0.0060625
-0.006625
-0.0060625
-0.006
-0.0063125
-0.0061875
-0.006125
-0.006125
-0.006375
-0.0060625
-0.0060625
-0.0061875
-0.0060625
-0.0061875
-0.0061875
-0.00625
-0.0059375
-0.006
-0.0060625
-0.006125
-0.0059375
-0.005875
-0.006125
-0.0061875
-0.0059375
-0.005875
-0.005875
-0.0058125
-0.005875
-0.0059375
-0.005875
-0.005875
-0.005625
-0.005625
-0.005875
-0.0056875
-0.0056875
-0.006125
-0.005875
-0.0054375
-0.005625
-0.0058125
-0.005625
-0.00575
-0.0059375
-0.0055625
-0.0054375
-0.0056875
-0.0055625
-0.005625
-0.0055625
-0.0056875
-0.0055625
-0.005875
-0.0056875
-0.0054375
-0.0051875
-0.0055
-0.0058125
-0.00575
-0.0051875
-0.005125
-0.0055625
-0.005625
-0.0055625
-0.0055
-0.0056875
-0.005625
-0.005125
-0.00525
-0.0055625
-0.0055625
-0.005375
-0.0056875
-0.0056875
-0.0054375
-0.005375
-0.0054375
-0.0055625
-0.0055625
-0.0056875
-0.00575
-0.005625
-0.005375
-0.0056875
-0.0055
-0.005625
-0.0056875
-0.005375
-0.0055
-0.005875
-0.00525
-0.0054375
-0.005625
-0.0054375
-0.0054375
-0.0054375
-0.0055625
-0.005125
-0.0055625
-0.005625
-0.00525
-0.0056875
-0.005375
-0.005625
-0.0049375
-0.0051875
-0.0053125
-0.0053125
-0.005125
-0.0055
-0.0054375
-0.00525
-0.0055625
-0.0051875
-0.0054375
-0.0055625
-0.0055625
-0.0054375
-0.0051875
-0.0053125
-0.005375
-0.0054375
-0.005375
-0.0054375
-0.005375
-0.005125
-0.00525
-0.0050625
-0.0053125
-0.00525
-0.005375
-0.0053125
-0.005625
-0.005125
-0.0054375
-0.005375
-0.00575
-0.0055625
-0.005625
-0.0056875
-0.0055
-0.0053125
-0.0054375
-0.005375
-0.00575
-0.005625
-0.0055625
-0.005625
-0.005375
-0.005375
-0.0053125
-0.005625
-0.0056875
-0.005875
-0.005625
-0.0056875
-0.0054375
-0.0059375
-0.0056875
-0.0056875
-0.005625
-0.0056875
-0.0055
-0.0053125
-0.0056875
-0.00575
-0.0055625
-0.0055
-0.00575
-0.0055625
-0.0055625
-0.00525
-0.00575
-0.005375
-0.0058125
-0.00575
-0.0056875
-0.005375
-0.0058125
-0.0056875
-0.0055
-0.0054375
-0.005625
-0.0056875
-0.0055
-0.0058125
-0.0056875
-0.005875
-0.0058125
-0.0056875
-0.0058125
-0.0055625
-0.0055
-0.0053125
-0.0055625
-0.0054375
-0.0056875
-0.0059375
-0.0060625
-0.0055625
-0.0059375
-0.0058125
-0.0058125
-0.005875
-0.0059375
-0.005875
-0.0058125
-0.0059375
-0.00625
-0.0059375
-0.005875
-0.006125
-0.006375
-0.006125
-0.006125
-0.0059375
-0.006
-0.006
-0.0060625
-0.0065
-0.0063125
-0.006
-0.0060625
-0.0063125
-0.0061875
-0.0063125
-0.0061875
-0.006625
-0.0061875
-0.0061875
-0.0063125
-0.006375
-0.006
-0.005875
-0.0063125
-0.0065
-0.006375
-0.006125
-0.00625
-0.0064375
-0.0064375
-0.00625
-0.0065
-0.006375
-0.0065625
-0.0061875
-0.0066875
-0.006375
-0.00675
-0.006625
-0.0065625
-0.0064375
-0.006375
-0.0064375
-0.0065625
-0.00625
-0.0065
-0.0065625
-0.0064375
-0.006375
-0.006375
-0.0064375
-0.0065625
-0.0065625
-0.0066875
-0.0065625
-0.0065625
-0.0064375
-0.007125
-0.0069375
-0.006625
-0.00675
-0.0071875
-0.0069375
-0.007125
-0.0073125
-0.0069375
-0.007125
-0.0069375
-0.0071875
-0.0071875
-0.006875
-0.0071875
-0.0073125
-0.0070625
-0.00725
-0.0071875
-0.00775
-0.007125
-0.00725
-0.00725
-0.007375
-0.007375
-0.007625
-0.0073125
-0.00725
-0.0073125
-0.0074375
-0.0075
-0.0074375
-0.0075
-0.0075625
-0.00775
-0.0076875
-0.0074375
-0.0074375
-0.007875
-0.0076875
-0.0075625
-0.0078125
-0.0075
-0.0073125
-0.00775
-0.0076875
-0.007625
-0.007625
-0.007625
-0.008125
-0.0076875
-0.0076875
-0.007875
-0.0076875
-0.0076875
-0.007875
-0.0075
-0.0076875
-0.0073125
-0.0076875
-0.0076875
-0.00775
-0.0075625
-0.008
-0.0080625
-0.0078125
-0.0078125
-0.0081875
-0.008125
-0.0079375
-0.0080625
-0.0083125
-0.0084375
-0.00825
-0.0080625
-0.0083125
-0.0079375
-0.0083125
-0.0085
-0.008375
-0.00825
-0.0083125
-0.00825
-0.0085
-0.0085
-0.0084375
-0.0085
-0.00875
-0.0083125
-0.008625
-0.0085
-0.0085625
-0.008875
-0.008625
-0.0085
-0.0085625
-0.0085
-0.0086875
-0.00875
-0.008625
-0.0085
-0.00875
-0.00875
-0.0088125
-0.00875
-0.009
-0.0086875
-0.0089375
-0.0089375
-0.0090625
-0.0085
-0.0090625
-0.008625
-0.00875
-0.0089375
-0.0090625
-0.0089375
-0.0084375
-0.00875
-0.009
-0.0091875
-0.0091875
-0.0094375
-0.0093125
-0.0090625
-0.009125
-0.009
-0.0090625
-0.0093125
-0.008875
-0.009125
-0.0095
-0.009375
-0.009375
-0.00925
-0.0095
-0.00925
-0.009625
-0.009375
-0.009125
-0.0095
-0.0095625
-0.009875
-0.0094375
-0.0099375
-0.0099375
-0.0095
-0.009625
-0.0094375
-0.0099375
-0.01
-0.01025
-0.010375
-0.0098125
-0.0099375
-0.00975
-0.010062
-0.0099375
-0.0098125
-0.0099375
-0.0098125
-0.0098125
-0.0099375
-0.010188
-0.01025
-0.01025
-0.010062
-0.0105
-0.01
-0.010062
-0.010125
-0.010125
-0.010125
-0.010562
-0.010437
-0.010125
-0.01
-0.010313
-0.01025
-0.010375
-0.010437
-0.010562
-0.01025
-0.010313
-0.010313
-0.01025
-0.0105
-0.010562
-0.010562
-0.0105
-0.010437
-0.010625
-0.010625
-0.010437
-0.0105
-0.010375
-0.010625
-0.010625
-0.010812
-0.011
-0.010875
-0.01075
-0.010875
-0.01125
-0.011
-0.011063
-0.011125
-0.010937
-0.010937
-0.011
-0.011563
-0.010875
-0.010812
-0.011188
-0.011312
-0.011188
-0.01125
-0.012063
-0.0115
-0.011437
-0.011188
-0.011375
-0.011375
-0.011625
-0.011563
-0.011625
-0.0115
-0.01125
-0.011563
-0.011688
-0.011688
-0.011563
-0.011688
-0.011937
-0.011625
-0.011625
-0.011625
-0.012
-0.011875
-0.012125
-0.011812
-0.012
-0.011812
-0.012
-0.011937
-0.011812
-0.011812
-0.011937
-0.011625
-0.012063
-0.011812
-0.012063
-0.011937
-0.012375
-0.012187
-0.012312
-0.011875
-0.012187
-0.01225
-0.011937
-0.012125
-0.012375
-0.012438
-0.012375
-0.01225
-0.012563
-0.01225
-0.0125
-0.012563
-0.01275
-0.012625
-0.012563
-0.013
-0.012687
-0.013
-0.01275
-0.013063
-0.012875
-0.012875
-0.01275
-0.01275
-0.012812
-0.012938
-0.013312
-0.01275
-0.012938
-0.012875
-0.013312
-0.013125
-0.013063
-0.013438
-0.013312
-0.013
-0.013375
-0.01325
-0.013312
-0.013312
-0.01325
-0.013562
-0.013125
-0.013375
-0.0135
-0.013687
-0.01375
-0.013375
-0.013625
-0.013562
-0.013625
-0.013438
-0.013625
-0.0135
-0.013813
-0.0135
-0.013562
-0.013438
-0.013562
-0.01375
-0.013813
-0.01375
-0.013938
-0.013813
-0.013813
-0.013625
-0.014
-0.013813
-0.013687
-0.01375
-0.013875
-0.014062
-0.01375
-0.013687
-0.013813
-0.014125
-0.014125
-0.01425
-0.014562
-0.01425
-0.014187
-0.014187
-0.014187
-0.014375
-0.01425
-0.014313
-0.014125
-0.014375
-0.014375
-0.014813
-0.014313
-0.014375
-0.01475
-0.014375
-0.0145
-0.014562
-0.01475
-0.01475
-0.014813
-0.014687
-0.014687
-0.014625
-0.014687
-0.01475
-0.015062
-0.014813
-0.015125
-0.015188
-0.01525
-0.014562
-0.014625
-0.014687
-0.014625
-0.014937
-0.01525
-0.014875
-0.014875
-0.015062
-0.01525
-0.015313
-0.01525
-0.015313
-0.015062
-0.015
-0.01525
-0.015188
-0.015437
-0.015313
-0.0155
-0.01525
-0.015687
-0.015437
-0.015375
-0.015562
-0.015437
-0.015188
-0.01525
-0.015812
-0.015125
-0.015375
-0.015437
-0.015875
-0.01575
-0.01575
-0.015625
-0.0155
-0.015875
-0.015812
-0.015937
-0.016
-0.016062
-0.016
-0.016125
-0.016
-0.016062
-0.016125
-0.015937
-0.016125
-0.016188
-0.016313
-0.016375
-0.016313
-0.016375
-0.016375
-0.016687
-0.016313
-0.016812
-0.01625
-0.016062
-0.0165
-0.016562
-0.016375
-0.016375
-0.01675
-0.016875
-0.016313
-0.016625
-0.016375
-0.016562
-0.016438
-0.016687
-0.016937
-0.016687
-0.0165
-0.01675
-0.01675
-0.016687
-0.016812
-0.017125
-0.0165
-0.01675
-0.016875
-0.017
-0.017
-0.016687
-0.017125
-0.017063
-0.016875
-0.016812
-0.016937
-0.016937
-0.017125
-0.017188
-0.017313
-0.01675
-0.016937
-0.01725
-0.017
-0.017313
-0.017
-0.017438
-0.017375
-0.017063
-0.01725
-0.017375
-0.017562
-0.017188
-0.017687
-0.017625
-0.017313
-0.017687
-0.017375
-0.017313
-0.017562
-0.017438
-0.017875
-0.017687
-0.017562
-0.017562
-0.01775
-0.017812
-0.017938
-0.01825
-0.01825
-0.017625
-0.0175
-0.017938
-0.017625
-0.018125
-0.018
-0.018
-0.017687
-0.017625
-0.017875
-0.01775
-0.017625
-0.01775
-0.018375
-0.018
-0.018063
-0.017812
-0.018
-0.018063
-0.017812
-0.018125
-0.018063
-0.01775
-0.018125
-0.018188
-0.018437
-0.018188
-0.018437
-0.018125
-0.017812
-0.017938
-0.018
-0.018
-0.017938
-0.018188
-0.0185
-0.018
-0.018
-0.0185
-0.018313
-0.0185
-0.018687
-0.018812
-0.018625
-0.018625
-0.01875
-0.018875
-0.018562
-0.018875
-0.019
-0.019125
-0.018875
-0.018875
-0.018812
-0.018687
-0.018875
-0.018687
-0.01925
-0.019063
-0.018875
-0.019312
-0.019063
-0.019063
-0.019063
-0.01925
-0.019375
-0.018875
-0.019125
-0.019125
-0.019063
-0.019063
-0.019375
-0.019375
-0.019063
-0.019125
-0.019375
-0.019813
-0.019312
-0.0195
-0.019687
-0.019562
-0.019312
-0.0195
-0.019562
-0.019437
-0.019437
-0.019813
-0.019562
-0.019562
-0.019375
-0.019625
-0.019375
-0.019375
-0.019875
-0.019562
-0.019625
-0.019813
-0.019625
-0.019687
-0.019813
-0.019875
-0.020188
-0.019625
-0.019687
-0.01975
-0.020437
-0.019938
-0.020312
-0.020312
-0.020312
-0.020188
-0.020125
-0.020063
-0.020562
-0.0205
-0.020437
-0.020562
-0.020437
-0.020562
-0.020375
-0.020437
-0.02075
-0.021
-0.020875
-0.020938
-0.02075
-0.020875
-0.020875
-0.020875
-0.020875
-0.021
-0.021187
-0.021125
-0.020813
-0.021125
-0.020938
-0.020875
-0.021
-0.021187
-0.021312
-0.021375
-0.021312
-0.021562
-0.021437
-0.021312
-0.021312
-0.0215
-0.021625
-0.0215
-0.021688
-0.021813
-0.021688
-0.022187
-0.021625
-0.022
-0.021875
-0.022062
-0.022062
-0.021813
-0.0225
-0.022187
-0.022625
-0.022375
-0.022563
-0.022375
-0.022563
-0.022875
-0.022688
-0.022625
-0.022938
-0.022875
-0.022813
-0.02275
-0.022938
-0.023
-0.023312
-0.0235
-0.023625
-0.023438
-0.023438
-0.023937
-0.023563
-0.023813
-0.023813
-0.024312
-0.024062
-0.023563
-0.024312
-0.02425
-0.024375
-0.024563
-0.024563
-0.024937
-0.02425
-0.024625
-0.024875
-0.025
-0.024813
-0.024937
-0.025563
-0.025125
-0.024937
-0.025062
-0.02525
-0.025187
-0.025187
-0.0255
-0.025688
-0.025375
-0.02575
-0.025688
-0.025625
-0.026062
-0.026125
-0.026125
-0.025875
-0.026125
-0.026125
-0.026375
-0.026
-0.026187
-0.026687
-0.0265
-0.026313
-0.026375
-0.026375
-0.026375
-0.026563
-0.026687
-0.02675
-0.026687
-0.026563
-0.026563
-0.026812
-0.026812
-0.027062
-0.027188
-0.027188
-0.026875
-0.02725
-0.02725
-0.02725
-0.0275
-0.027687
-0.027625
-0.027313
-0.027438
-0.0275
-0.027875
-0.02775
-0.028063
-0.028313
-0.027812
-0.027563
-0.027875
-0.027937
-0.028063
-0.028125
-0.028125
-0.028438
-0.028063
-0.02825
-0.028562
-0.028625
-0.028687
-0.02875
-0.028937
-0.028687
-0.0285
-0.028687
-0.02875
-0.02875
-0.028625
-0.02875
-0.028937
-0.02875
-0.029063
-0.029
-0.029125
-0.029188
-0.029063
-0.029437
-0.029
-0.029125
-0.029375
-0.029188
-0.02925
-0.029562
-0.029562
-0.029562
-0.02925
-0.02925
-0.029562
-0.029625
-0.0295
-0.029687
-0.029812
-0.0295
-0.029687
-0.029562
-0.029562
-0.029687
-0.029687
-0.029687
-0.029625
-0.0295
-0.029938
-0.030063
-0.030188
-0.029938
-0.030125
-0.030375
-0.030063
-0.030125
-0.029875
-0.030313
-0.030125
-0.030313
-0.030562
-0.030375
-0.030188
-0.030437
-0.030625
-0.03075
-0.0305
-0.030875
-0.030562
-0.0305
-0.031
-0.030813
-0.030813
-0.030813
-0.031063
-0.030687
-0.030938
-0.030875
-0.03075
-0.030813
-0.031188
-0.031125
-0.031375
-0.031188
-0.030875
-0.031375
-0.03125
-0.031312
-0.03125
-0.03125
-0.0315
-0.031125
-0.031375
-0.031625
-0.031625
-0.031688
-0.03175
-0.031625
-0.031375
-0.031625
-0.031875
-0.031813
-0.032
-0.031937
-0.03175
-0.031688
-0.031813
-0.031937
-0.031875
-0.03225
-0.032063
-0.031875
-0.032063
-0.032187
-0.032063
-0.032063
-0.032313
-0.032
-0.032375
-0.032313
-0.032625
-0.032313
-0.032625
-0.03275
-0.03275
-0.032938
-0.033
-0.032375
-0.032625
-0.032563
-0.03275
-0.03275
-0.033062
-0.032938
-0.032812
-0.032563
-0.033062
-0.032938
-0.032938
-0.033
-0.033062
-0.032875
-0.032812
-0.032812
-0.032812
-0.033125
-0.033125
-0.033
-0.033188
-0.033
-0.032875
-0.033188
-0.033125
-0.03325
-0.033188
-0.033188
-0.033438
-0.032875
-0.032938
-0.033125
-0.03325
-0.033438
-0.033062
-0.0335
-0.03325
-0.033375
-0.033375
-0.03375
-0.033375
-0.033375
-0.033375
-0.033312
-0.033375
-0.033312
-0.033375
-0.033375
-0.033563
-0.033563
-0.033563
-0.0335
-0.033375
-0.03325
-0.033563
-0.033312
-0.033563
-0.0335
-0.0335
-0.033375
-0.0335
-0.033875
-0.033375
-0.033312
-0.034
-0.033813
-0.03375
-0.033563
-0.033687
-0.033625
-0.033625
-0.033937
-0.033625
-0.033563
-0.033875
-0.033563
-0.033875
-0.033687
-0.03375
-0.033687
-0.033563
-0.033687
-0.033813
-0.033687
-0.033687
-0.033687
-0.033813
-0.033813
-0.033312
-0.033687
-0.034125
-0.034187
-0.03375
-0.033937
-0.034063
-0.033438
-0.033875
-0.033625
-0.033813
-0.033687
-0.033813
-0.034063
-0.0335
-0.033813
-0.034
-0.033687
-0.034
-0.03425
-0.03425
-0.033813
-0.033625
-0.034
-0.033875
-0.033937
-0.033563
-0.033875
-0.034125
-0.033625
-0.033813
-0.033875
-0.033687
-0.033813
-0.033625
-0.03425
-0.034063
-0.033875
-0.034063
-0.034063
-0.034
-0.033937
-0.034187
-0.034313
-0.033937
-0.033937
-0.0345
-0.033937
-0.033813
-0.034375
-0.034
-0.034063
-0.034
-0.033813
-0.034313
-0.034063
-0.034187
-0.0345
-0.034063
-0.034125
-0.034125
-0.033937
-0.034437
-0.03425
-0.034125
-0.03425
-0.033937
-0.034063
-0.034313
-0.034125
-0.034187
-0.03425
-0.034437
-0.034063
-0.034313
-0.034125
-0.033875
-0.033813
-0.034
-0.034
-0.034187
-0.034063
-0.034313
-0.034125
-0.033813
-0.034125
-0.03425
-0.034313
-0.034063
-0.034
-0.034
-0.033875
-0.034063
-0.033813
-0.03425
-0.034063
-0.0335
-0.034187
-0.034187
-0.034437
-0.034313
-0.034375
-0.0345
-0.034313
-0.034187
-0.034375
-0.034313
-0.034375
-0.034437
-0.034313
-0.03425
-0.034562
-0.034125
-0.034437
-0.034375
-0.03475
-0.0345
-0.03425
-0.034625
-0.0345
-0.034688
-0.03475
-0.034875
-0.034562
-0.034812
-0.034625
-0.034688
-0.034625
-0.034375
-0.034562
-0.034625
-0.034562
-0.034437
-0.034875
-0.035062
-0.034625
-0.0345
-0.0345
-0.035188
-0.03475
-0.034875
-0.034812
-0.034688
-0.034375
-0.034938
-0.035125
-0.034875
-0.03475
-0.034688
-0.034688
-0.034875
-0.034875
-0.035125
-0.035
-0.03475
-0.034875
-0.03475
-0.035
-0.034938
-0.034875
-0.034938
-0.03475
-0.034688
-0.034625
-0.034812
-0.034812
-0.034875
-0.035312
-0.035125
-0.035125
-0.035188
-0.03525
-0.035062
-0.035188
-0.035375
-0.035312
-0.034938
-0.03525
-0.035062
-0.035687
-0.03525
-0.0355
-0.035437
-0.035563
-0.035125
-0.035375
-0.0355
-0.03525
-0.035312
-0.035687
-0.035563
-0.035375
-0.035687
-0.0355
-0.035375
-0.035813
-0.035437
-0.035813
-0.035687
-0.0355
-0.035375
-0.035563
-0.035687
-0.035813
-0.036
-0.035875
-0.035687
-0.035563
-0.035875
-0.035813
-0.035813
-0.03575
-0.03575
-0.035437
-0.035563
-0.035875
-0.035813
-0.036125
-0.035937
-0.036063
-0.036063
-0.036125
-0.036
-0.035875
-0.036125
-0.035937
-0.036063
-0.036
-0.035937
-0.036063
-0.035875
-0.035813
-0.0365
-0.03625
-0.0365
-0.036312
-0.03625
-0.036125
-0.036187
-0.036125
-0.0365
-0.036438
-0.036562
-0.036375
-0.036625
-0.036438
-0.0365
-0.036625
-0.036375
-0.036625
-0.036875
-0.036562
-0.036562
-0.036875
-0.03675
-0.0365
-0.036438
-0.03675
-0.036562
-0.03675
-0.036688
-0.036812
-0.036625
-0.0365
-0.037188
-0.037188
-0.037062
-0.03675
-0.036812
-0.036812
-0.036938
-0.036875
-0.037062
-0.036625
-0.036688
-0.036938
-0.036688
-0.036562
-0.036938
-0.036812
-0.036938
-0.036438
-0.03675
-0.036875
-0.037
-0.036875
-0.037062
-0.036875
-0.03675
-0.036812
-0.036562
-0.036875
-0.03675
-0.036688
-0.037062
-0.036875
-0.03675
-0.03675
-0.037
-0.037125
-0.037313
-0.037125
-0.037563
-0.037062
-0.03725
-0.037125
-0.03725
-0.036938
-0.03725
-0.037375
-0.037375
-0.037188
-0.0375
-0.037125
-0.037188
-0.037437
-0.037375
-0.03725
-0.037437
-0.037313
-0.037563
-0.037375
-0.037437
-0.037625
-0.037813
-0.03775
-0.037375
-0.037313
-0.037062
-0.037375
-0.037188
-0.037563
-0.037437
-0.03725
-0.03725
-0.037625
-0.0375
-0.037
-0.037375
-0.03775
-0.037313
-0.037313
-0.037125
-0.03725
-0.037125
-0.03725
-0.0375
-0.037125
-0.0375
-0.0375
-0.037188
-0.037313
-0.037687
-0.03725
-0.03725
-0.0375
-0.037313
-0.03725
-0.03725
-0.0375
-0.037563
-0.037313
-0.037188
-0.037437
-0.03725
-0.037313
-0.037375
-0.037437
-0.037687
-0.037375
-0.037687
-0.037563
-0.037625
-0.037563
-0.03775
-0.037813
-0.037625
-0.037437
-0.037375
-0.037375
-0.0375
-0.0375
-0.037563
-0.03775
-0.03725
-0.0375
-0.03775
-0.037563
-0.037563
-0.037563
-0.038
-0.0375
-0.037375
-0.037937
-0.037437
-0.037563
-0.037687
-0.037875
-0.0375
-0.037188
-0.037375
-0.037437
-0.03725
-0.03725
-0.037563
-0.037687
-0.037188
-0.037563
-0.037563
-0.037437
-0.037375
-0.0375
-0.0375
-0.037375
-0.0375
-0.037375
-0.037437
-0.037313
-0.037625
-0.037563
-0.037313
-0.037313
-0.037625
-0.037375
-0.037687
-0.0375
-0.037313
-0.037437
-0.037437
-0.037313
-0.037625
-0.037563
-0.0375
-0.037563
-0.037813
-0.0375
-0.03725
-0.037313
-0.037687
-0.0375
-0.037687
-0.037687
-0.037437
-0.037687
-0.037687
-0.0375
-0.037375
-0.037375
-0.037625
-0.037687
-0.037375
-0.037687
-0.037687
-0.037563
-0.037563
-0.037563
-0.037875
-0.037437
-0.037437
-0.037188
-0.037563
-0.037375
-0.037375
-0.037625
-0.037563
-0.037375
-0.037563
-0.037563
-0.037687
-0.037625
-0.037625
-0.037375
-0.037375
-0.037313
-0.03775
-0.037313
-0.037125
-0.03725
-0.03775
-0.037125
-0.037062
-0.037188
-0.037375
-0.037313
-0.03725
-0.0375
-0.037188
-0.037188
-0.037188
-0.03725
-0.037375
-0.037437
-0.037313
-0.037313
-0.036812
-0.037
-0.036938
-0.037125
-0.037062
-0.03725
-0.037437
-0.037313
-0.037062
-0.037188
-0.037
-0.037188
-0.036938
-0.037313
-0.037563
-0.037188
-0.037062
-0.036938
-0.036625
-0.037125
-0.03725
-0.037375
-0.037125
-0.037188
-0.037
-0.037375
-0.037313
-0.037375
-0.037313
-0.03725
-0.037
-0.037
-0.037062
-0.036812
-0.036812
-0.03675
-0.037313
-0.037062
-0.036875
-0.037
-0.037125
-0.036875
-0.036812
-0.036688
-0.036938
-0.036812
-0.036438
-0.036688
-0.036625
-0.036812
-0.037
-0.036125
-0.036187
-0.0365
-0.036625
-0.036625
-0.036625
-0.0365
-0.036438
-0.0365
-0.036438
-0.036812
-0.036125
-0.03625
-0.036312
-0.036125
-0.036562
-0.035937
-0.036375
-0.035937
-0.036125
-0.035937
-0.036312
-0.036063
-0.036625
-0.036125
-0.03625
-0.036063
-0.03625
-0.035937
-0.035937
-0.035937
-0.035813
-0.036
-0.035875
-0.035563
-0.035813
-0.035687
-0.035937
-0.035687
-0.035437
-0.0355
-0.0355
-0.035875
-0.03575
-0.035937
-0.035437
-0.035437
-0.035375
-0.035312
-0.03525
-0.035188
-0.035062
-0.035312
-0.034938
-0.035125
-0.034938
-0.03475
-0.035125
-0.034812
-0.034875
-0.034625
-0.034562
-0.0345
-0.034812
-0.0345
-0.034313
-0.034437
-0.0345
-0.034
-0.03375
-0.033937
-0.033937
-0.033937
-0.034125
-0.033875
-0.033438
-0.033375
-0.033563
-0.033625
-0.033062
-0.03325
-0.033188
-0.033188
-0.033
-0.032812
-0.033
-0.032437
-0.032375
-0.032313
-0.032563
-0.032375
-0.032125
-0.031875
-0.032
-0.031688
-0.03175
-0.031562
-0.031625
-0.031
-0.031
-0.031188
-0.030562
-0.030625
-0.030813
-0.030437
-0.030437
-0.030063
-0.030063
-0.030188
-0.02975
-0.029437
-0.029625
-0.02925
-0.028937
-0.028812
-0.028687
-0.028625
-0.02825
-0.027937
-0.028
-0.027812
-0.027625
-0.026937
-0.027
-0.026937
-0.026812
-0.0265
-0.02625
-0.025937
-0.025563
-0.025688
-0.025563
-0.024937
-0.024875
-0.0245
-0.024125
-0.024
-0.023875
-0.0235
-0.023312
-0.023438
-0.02325
-0.02275
-0.02225
-0.022
-0.022
-0.021875
-0.021688
-0.021063
-0.021125
-0.020437
-0.020688
-0.020063
-0.020188
-0.01975
-0.019813
-0.019562
-0.019063
-0.018812
-0.019
-0.018625
-0.018063
-0.01775
-0.017687
-0.017313
-0.017188
-0.016812
-0.016687
-0.01625
-0.016125
-0.015875
-0.015687
-0.015375
-0.014937
-0.015062
-0.014687
-0.014375
-0.014313
-0.013938
-0.013375
-0.013312
-0.013125
-0.012938
-0.0125
-0.012375
-0.012125
-0.011937
-0.011437
-0.011063
-0.011063
-0.010562
-0.010313
-0.0105
-0.010188
-0.0095625
-0.0094375
-0.0095
-0.0091875
-0.008625
-0.0086875
-0.0085
-0.007875
-0.0080625
-0.007625
-0.0073125
-0.0070625
-0.0065625
-0.0070625
-0.0065625
-0.006125
-0.0059375
-0.005875
-0.0055
-0.00525
-0.005125
-0.004625
-0.0040625
-0.0043125
-0.00425
-0.00425
-0.0035
-0.0035
-0.00375
-0.00325
-0.003
-0.002875
-0.002875
-0.002375
-0.0023125
-0.002375
-0.0019375
-0.001625
-0.001375
-0.0011875
-0.000875
-0.000875
-0.00075
-0.0008125
6.25e-05
-0.00025
-0.0004375
-0.000125
6.25e-05
0.0003125
0.000375
0.0005
0.0009375
0.001625
0.001625
0.001625
0.001875
0.0018125
0.0020625
0.0021875
0.0023125
0.0024375
0.0024375
0.00275
0.0029375
0.003
0.00325
0.0035
0.0031875
0.00375
0.0036875
0.003625
0.0040625
0.0043125
0.0044375
0.004375
0.0045
0.004625
0.004875
0.004625
0.0050625
0.0053125
0.0054375
0.0054375
0.005875
0.005625
0.00575
0.005875
0.0061875
0.0061875
0.0063125
0.006375
0.0065625
0.0066875
0.0065625
0.0066875
0.00675
0.006875
0.00675
0.007125
0.007125
0.007375
0.0073125
0.00775
0.0075
0.007375
0.007875
0.0080625
0.0075
0.0075625
0.0083125
0.0080625
0.0076875
0.008125
0.0084375
0.0081875
0.0080625
0.0084375
0.0085625
0.00875
0.00875
0.0091875
0.0090625
0.0089375
0.009
0.009125
0.0094375
0.0091875
0.009375
0.009375
0.00925
0.009625
0.0096875
0.0096875
0.009875
0.0098125
0.0096875
0.009875
0.009625
0.0099375
0.010188
0.010313
0.010188
0.010437
0.010125
0.01
0.010188
0.010188
0.010375
0.01025
0.010562
0.010188
0.010688
0.010375
0.010688
0.011
0.011063
0.010688
0.010812
0.010688
0.010688
0.010937
0.010562
0.010875
0.010875
0.010875
0.010937
0.010937
0.010688
0.010437
0.010812
0.011
0.010937
0.011125
0.011
0.010688
0.010812
0.010812
0.010625
0.011
0.010688
0.011
0.011188
0.010437
0.0105
0.011188
0.011375
0.010875
0.011125
0.011188
0.011125
0.011
0.011312
0.01125
0.010875
0.011125
0.010937
0.011125
0.010875
0.010875
0.011312
0.01125
0.011125
0.011312
0.011312
0.011312
0.011125
0.011375
0.011688
0.01125
0.011437
0.011375
0.011375
0.011125
0.011125
0.011312
0.011188
0.01125
0.011312
0.010937
0.011063
0.011
0.011125
0.011188
0.01125
0.01125
0.011
0.011188
0.010812
0.010875
0.010937
0.011
0.011063
0.011
0.010875
0.010812
0.010875
0.011
0.010625
0.010875
0.010812
0.010875
0.0105
0.010562
0.010625
0.01075
0.010188
0.0105
0.010437
0.010688
0.010062
0.010625
0.010313
0.010437
0.0105
0.0105
0.01025
0.010125
0.010437
0.010375
0.010313
0.010062
0.01025
0.01
0.010062
0.01
0.0099375
0.0105
0.010125
0.0098125
0.010125
0.009875
0.0098125
0.0099375
0.010188
0.010062
0.009625
0.0095625
0.0098125
0.00975
0.0095
0.0096875
0.0096875
0.0095
0.0094375
0.0099375
0.0095625
0.0094375
0.0096875
0.0096875
0.0099375
0.0094375
0.009375
0.0094375
0.0093125
0.00875
0.0093125
0.0093125
0.008875
0.0091875
0.0086875
0.0089375
0.00875
0.009125
0.0089375
0.00875
0.00875
0.0091875
0.0088125
0.0084375
0.0088125
0.0089375
0.008625
0.0085
0.00875
0.0086875
0.008625
0.0081875
0.00825
0.0085625
0.0083125
0.0083125
0.0083125
0.0085
0.00825
0.008
0.0083125
0.0083125
0.007875
0.0078125
0.008
0.0079375
0.0075625
0.0079375
0.0076875
0.00775
0.00775
0.0076875
0.0074375
0.0078125
0.007625
0.008
0.0074375
0.0075625
0.007625
0.00775
0.0074375
0.0073125
0.00725
0.007375
0.00725
0.0074375
0.007125
0.00725
0.0069375
0.0070625
0.00725
0.007
0.007
0.006625
0.006875
0.0069375
0.006875
0.0066875
0.006625
0.0066875
0.00675
0.0068125
0.0064375
0.0065625
0.006125
0.006125
0.0065
0.006125
0.00625
0.00625
0.0061875
0.0058125
0.006125
0.006
0.0059375
0.0055
0.006
0.0060625
0.0056875
0.0055625
0.0056875
0.0058125
0.0055625
0.00575
0.005625
0.005625
0.0053125
0.00575
0.005375
0.00525
0.005625
0.005375
0.0055
0.0051875
0.00525
0.0053125
0.0051875
0.0051875
0.00525
0.0050625
0.00475
0.005125
0.0054375
0.0050625
0.004875
0.0048125
0.005
0.0046875
0.004625
0.0049375
0.0045
0.00475
0.004625
0.0045625
0.0046875
0.0044375
0.0045
0.00475
0.0045
0.004625
0.00425
0.0043125
0.0043125
0.0040625
0.0043125
0.0041875
0.0039375
0.004125
0.00375
0.003875
0.003875
0.0040625
0.00375
0.004
0.00375
0.0040625
0.00375
0.00325
0.0035625
0.003625
0.0034375
0.0033125
0.003625
0.0035
0.00325
0.0031875
0.003125
0.0031875
0.003125
0.003125
0.003125
0.0029375
0.003125
0.0031875
0.0031875
0.0031875
0.00325
0.0034375
0.00325
0.0025625
0.00275
0.0030625
0.0026875
0.00275
0.0028125
0.0029375
0.0026875
0.0025
0.002875
0.0026875
0.0026875
0.0026875
0.002625
0.0025625
0.002125
0.0026875
0.0025625
0.0026875
0.002625
0.0025
0.0023125
0.002125
0.00225
0.00225
0.0024375
0.0019375
0.001875
0.0018125
0.002
0.0015
0.0018125
0.002125
0.0018125
0.0018125
0.00175
0.00175
0.002
0.0015
0.001625
0.00175
0.0015625
0.0014375
0.0015625
0.00175
0.0014375
0.0013125
0.0013125
0.001375
0.0011875
0.00125
0.001125
0.0011875
0.0010625
0.0009375
0.00125
0.0013125
0.0011875
0.001
0.0009375
0.001
0.0008125
0.0008125
0.000875
0.001125
0.0010625
0.001125
0.001
0.00075
0.000875
0.001125
0.001
0.0008125
0.000625
0.0005
0.00075
0.0004375
0.0004375
0.00075
0.000375
0.00025
0.0006875
0.0005
0.000125
0.000125
0.000625
0.0005
0.000375
0.0004375
0.000625
0.000375
0.000375
-0
0.0004375
0.0001875
0.0004375
0.000125
6.25e-05
0.000125
-0.000125
-0.0001875
-0
-0.0005
-0.0003125
-0.000125
-0.0004375
0.000125
-0.000125
-0.0003125
-6.25e-05
-0.000125
-0.00025
-0.0006875
-0.0005
-0.000375
-0.000625
-0.000375
-0.000625
-0.0006875
-0.0001875
-0.000625
-0.00075
-0.00125
-0.0005
-0.0005
-0.00075
-0.00075
-0.0010625
-0.0008125
-0.0009375
-0.0010625
-0.00075
-0.0008125
-0.0006875
-0.0009375
-0.001
-0.001375
-0.001125
-0.0008125
-0.0009375
-0.0010625
-0.0010625
-0.0010625
-0.0010625
-0.001125
-0.0008125
-0.0010625
-0.00125
-0.001125
-0.0015
-0.0015625
-0.0015625
-0.0014375
-0.0011875
-0.0015
-0.0011875
-0.0015625
-0.0013125
-0.0015
-0.0018125
-0.001375
-0.00175
-0.0014375
-0.0016875
-0.0016875
-0.001875
-0.0018125
-0.0020625
-0.00175
-0.0018125
-0.0019375
-0.00225
-0.00225
-0.0020625
-0.0024375
-0.0021875
-0.001875
-0.002375
-0.00225
-0.0025625
-0.002625
-0.00275
-0.0024375
-0.0024375
-0.0025
-0.0028125
-0.0025625
-0.0028125
-0.0029375
-0.0025625
-0.0025625
-0.0025
-0.00275
-0.002875
-0.0025625
-0.0029375
-0.0029375
-0.003
-0.0029375
-0.0029375
-0.0034375
-0.0029375
-0.003125
-0.002875
-0.0035
-0.0033125
-0.00325
-0.00325
-0.003375
-0.0030625
-0.0033125
-0.0035625
-0.003625
-0.0033125
-0.0033125
-0.003625
-0.0036875
-0.0038125
-0.0038125
-0.0034375
-0.0035625
-0.0036875
-0.003875
-0.0036875
-0.003875
-0.0036875
-0.004
-0.00425
-0.00375
-0.00425
-0.004125
-0.00425
-0.00425
-0.00425
-0.00425
-0.00425
-0.00425
-0.0041875
-0.0045625
-0.0045
-0.0045625
-0.0046875
-0.0045625
-0.0043125
-0.0045
-0.0048125
-0.0049375
-0.00525
-0.005125
-0.0048125
-0.004875
-0.0051875
-0.0051875
-0.0051875
-0.00525
-0.005375
-0.0055625
-0.005375
-0.0055
-0.0055
-0.005625
-0.00575
-0.005625
-0.00575
-0.0055
-0.005625
-0.0056875
-0.006
-0.0059375
-0.0055625
-0.0063125
-0.0060625
-0.0059375
-0.0060625
-0.0059375
-0.006
-0.006125
-0.005875
-0.0061875
-0.006
-0.0061875
-0.006125
-0.0060625
-0.0061875
-0.006375
-0.0063125
-0.006125
-0.00675
-0.0064375
-0.0065
-0.0066875
-0.0065625
-0.0071875
-0.007
-0.0069375
-0.0069375
-0.0069375
-0.0070625
-0.0073125
-0.00725
-0.0071875
-0.007125
-0.0071875
-0.007375
-0.007375
-0.007375
-0.00725
-0.008125
-0.007875
-0.007375
-0.0075625
-0.0076875
-0.007875
-0.0075
-0.0080625
-0.00825
-0.007875
-0.008
-0.0079375
-0.00825
-0.0081875
-0.008375
-0.0083125
-0.008625
-0.008
-0.0083125
-0.00825
-0.00825
-0.0085625
-0.0085625
-0.0085
-0.0085625
-0.008375
-0.008625
-0.0085625
-0.00875
-0.008625
-0.0090625
-0.0086875
-0.008875
-0.00875
-0.0089375
-0.0085625
-0.008875
-0.008875
-0.0090625
-0.009
-0.009
-0.008875
-0.0089375
-0.0090625
-0.009375
-0.0093125
-0.00925
-0.0091875
-0.0091875
-0.00925
-0.0093125
-0.0094375
-0.0095625
-0.0093125
-0.009125
-0.00925
-0.0095625
-0.009625
-0.00975
-0.009625
-0.0096875
-0.0096875
-0.009875
-0.010125
-0.0098125
-0.009875
-0.010062
-0.0099375
-0.01
-0.01
-0.01
-0.010125
-0.010125
-0.01025
-0.010375
-0.0099375
-0.01025
-0.010125
-0.010313
-0.010125
-0.010125
-0.01025
-0.01025
-0.010188
-0.010437
-0.010625
-0.010313
-0.010437
-0.010625
-0.010812
-0.010313
-0.010375
-0.010625
-0.010562
-0.01025
-0.01075
-0.01075
-0.010313
-0.010562
-0.01075
-0.0105
-0.010625
-0.010562
-0.010937
-0.010562
-0.010437
-0.0105
-0.010562
-0.010562
-0.01075
-0.01075
-0.010812
-0.010375
-0.010625
-0.0105
-0.0105
-0.01075
-0.010625
-0.010375
-0.010625
-0.010562
-0.010625
-0.010875
-0.011063
-0.011
-0.010812
-0.010937
-0.010562
-0.01075
-0.01125
-0.011
-0.01075
-0.011063
-0.011375
-0.011125
-0.010937
-0.011125
-0.010937
-0.010812
-0.011
-0.010812
-0.011
-0.010937
-0.010625
-0.011
-0.010875
-0.010937
-0.01075
-0.010812
-0.010812
-0.010688
-0.01075
-0.011063
-0.010812
-0.01075
-0.011063
-0.011
-0.010375
-0.010875
-0.011125
-0.010937
-0.010625
-0.010562
-0.010875
-0.010812
-0.010437
-0.010688
-0.010562
-0.010437
-0.010375
-0.010812
-0.010562
-0.010437
-0.0105
-0.010688
-0.010188
-0.010313
-0.010625
-0.010375
-0.010062
-0.01025
-0.010437
-0.01025
-0.01
-0.010375
-0.010562
-0.010313
-0.01025
-0.010062
-0.010125
-0.010062
-0.01025
-0.010313
-0.010437
-0.0099375
-0.010125
-0.01025
-0.010125
-0.010125
-0.010188
-0.010125
-0.010062
-0.010062
-0.01025
-0.0099375
-0.0099375
-0.010062
-0.0099375
-0.010062
-0.0098125
-0.01
-0.010062
-0.0095625
-0.0099375
-0.0099375
-0.009875
-0.0096875
-0.0095625
-0.009375
-0.0096875
-0.00975
-0.0095625
-0.010062
-0.00975
-0.009375
-0.0095625
-0.0095
-0.009375
-0.0095625
-0.00975
-0.0091875
-0.0091875
-0.009375
-0.009375
-0.0091875
-0.0093125
-0.0095625
-0.0093125
-0.009125
-0.0091875
-0.00925
-0.0090625
-0.0090625
-0.0091875
-0.0091875
-0.009125
-0.0090625
-0.0090625
-0.009125
-0.009
-0.008625
-0.0089375
-0.0085
-0.009
-0.0088125
-0.0089375
-0.0089375
-0.009
-0.00875
-0.0090625
-0.0086875
-0.008875
-0.0090625
-0.0089375
-0.008875
-0.00875
-0.008875
-0.0085
-0.0085625
-0.0088125
-0.008625
-0.00875
-0.00875
-0.009
-0.00875
-0.0085625
-0.00875
-0.0088125
-0.0086875
-0.0085
-0.0086875
-0.0085
-0.0083125
-0.0084375
-0.008625
-0.0085
-0.00825
-0.008625
-0.0085625
-0.0080625
-0.008375
-0.008375
-0.0084375
-0.0083125
-0.0080625
-0.008625
-0.0083125
-0.0085625
-0.008125
-0.0079375
-0.00825
-0.0080625
-0.0081875
-0.0079375
-0.00775
-0.008375
-0.008375
-0.0080625
-0.008125
-0.0084375
-0.008375
-0.0080625
-0.0078125
-0.008
-0.00825
-0.0079375
-0.0078125
-0.0080625
-0.008
-0.00775
-0.007875
-0.0079375
-0.0079375
-0.007875
-0.0080625
-0.007875
-0.0076875
-0.007875
-0.0079375
-0.007875
-0.008
-0.008125
-0.0080625
-0.0075625
-0.007875
-0.008125
-0.0076875
-0.0076875
-0.0080625
-0.0080625
-0.0080625
-0.007875
-0.007875
-0.008
-0.0079375
-0.0075
-0.0079375
-0.0080625
-0.0078125
-0.0076875
-0.007875
-0.0075
-0.0076875
-0.0078125
-0.0079375
-0.00775
-0.0074375
-0.007625
-0.0078125
-0.0076875
-0.007875
-0.008
-0.0078125
-0.007875
-0.0079375
-0.007625
-0.0076875
-0.0076875
-0.0075625
-0.0076875
-0.0074375
-0.00725
-0.0074375
-0.007375
-0.0075625
-0.007375
-0.0079375
-0.0078125
-0.0075625
-0.007625
-0.0078125
-0.00775
-0.0074375
-0.0075625
-0.007375
-0.007375
-0.0075625
-0.0076875
-0.0075625
-0.007375
-0.007625
-0.0076875
-0.0080625
-0.0075625
-0.00775
-0.0078125
-0.0075625
-0.007625
-0.0078125
-0.0078125
-0.007625
-0.007625
-0.0079375
-0.007625
-0.007875
-0.0079375
-0.0081875
-0.0084375
-0.0078125
-0.0076875
-0.008
-0.008
-0.007875
-0.0078125
-0.00825
-0.0076875
-0.00775
-0.0076875
-0.0076875
-0.0079375
-0.0078125
-0.0083125
-0.008
-0.0078125
-0.0078125
-0.0079375
-0.008125
-0.007875
-0.00775
-0.008
-0.007875
-0.007875
-0.00775
-0.0076875
-0.0076875
-0.0079375
-0.007875
-0.0076875
-0.0075625
-0.0080625
-0.008
-0.007875
-0.00775
-0.00775
-0.007875
-0.008
-0.0078125
-0.007875
-0.007625
-0.00775
-0.0079375
-0.007875
-0.0078125
-0.008125
-0.0078125
-0.0080625
-0.008125
-0.008
-0.008375
-0.00825
-0.0078125
-0.0079375
-0.008
-0.0080625
-0.0080625
-0.00825
-0.0080625
-0.0081875
-0.008125
-0.0083125
-0.00825
-0.0081875
-0.0085625
-0.00825
-0.0081875
-0.0083125
-0.008375
-0.008125
-0.008125
-0.0085625
-0.008625
-0.00825
-0.008125
-0.0084375
-0.00825
-0.00825
-0.008375
-0.0084375
-0.0084375
-0.00825
-0.0083125
-0.0084375
-0.0084375
-0.008375
-0.008375
-0.0088125
-0.0085
-0.008375
-0.0085625
-0.0084375
-0.00875
-0.008375
-0.0085625
-0.0085625
-0.00825
-0.0086875
-0.008625
-0.0084375
-0.0086875
-0.00875
-0.0086875
-0.008375
-0.0086875
-0.0085625
-0.0086875
-0.008375
-0.0086875
-0.008625
-0.008625
-0.0085
-0.0088125
-0.008875
-0.008625
-0.0090625
-0.0090625
-0.008875
-0.0086875
-0.0090625
-0.0091875
-0.009125
-0.0088125
-0.0094375
-0.0090625
-0.00875
-0.009
-0.009125
-0.0090625
-0.009125
-0.0091875
-0.0095
-0.0090625
-0.009
-0.0090625
-0.009375
-0.0094375
-0.0096875
-0.0095625
-0.009125
-0.0090625
-0.009125
-0.0093125
-0.0091875
-0.0095625
-0.00925
-0.0098125
-0.0094375
-0.00925
-0.0093125
-0.009625
-0.0095
-0.0095
-0.0096875
-0.0095
-0.0091875
-0.0094375
-0.0095625
-0.0091875
-0.00975
-0.009875
-0.0094375
-0.0093125
-0.0096875
-0.0096875
-0.0095625
-0.0096875
-0.0099375
-0.009875
-0.0096875
-0.0096875
-0.0098125
-0.01
-0.010062
-0.009875
-0.0099375
-0.009875
-0.00975
-0.009875
-0.01
-0.01025
-0.01
-0.01
-0.010062
-0.010125
-0.009875
-0.009875
-0.0099375
-0.010313
-0.010125
-0.010313
-0.010188
-0.010375
-0.0105
-0.010375
-0.01025
-0.010313
-0.01025
-0.010625
-0.010125
-0.010375
-0.0105
-0.010688
-0.010437
-0.010688
-0.01075
-0.010688
-0.010562
-0.010625
-0.010812
-0.010812
-0.010688
-0.010688
-0.011063
-0.010625
-0.010375
-0.010875
-0.01075
-0.010875
-0.010688
-0.011
-0.01075
-0.010937
-0.010688
-0.010437
-0.010812
-0.011125
-0.010937
-0.010937
-0.010875
-0.010937
-0.011
-0.011
-0.011063
-0.011437
-0.011375
-0.011125
-0.010937
-0.011125
-0.011375
-0.010937
-0.011125
-0.011312
-0.0115
-0.011063
-0.011312
-0.011188
-0.011125
-0.011
-0.0115
-0.011563
-0.01175
-0.011563
-0.011688
-0.011688
-0.011375
-0.011688
-0.011875
-0.0115
-0.011812
-0.011812
-0.01175
-0.01175
-0.011688
-0.01175
-0.012063
-0.011688
-0.011688
-0.012063
-0.011812
-0.01225
-0.01225
-0.012312
-0.01225
-0.011812
-0.012
-0.012063
-0.012063
-0.01225
-0.012125
-0.012125
-0.011937
-0.011875
-0.012125
-0.012125
-0.01225
-0.01225
-0.012563
-0.012375
-0.012063
-0.012438
-0.012312
-0.012438
-0.012375
-0.012312
-0.012312
-0.012375
-0.012063
-0.012438
-0.012687
-0.012312
-0.012687
-0.012812
-0.012438
-0.012687
-0.012438
-0.012687
-0.01275
-0.012438
-0.012438
-0.012563
-0.0125
-0.012875
-0.012875
-0.012875
-0.013063
-0.012938
-0.012875
-0.012875
-0.012875
-0.013
-0.013187
-0.013125
-0.012938
-0.013312
-0.013
-0.01325
-0.013312
-0.01325
-0.013187
-0.013187
-0.013562
-0.013375
-0.01325
-0.013562
-0.013687
-0.013438
-0.0135
-0.013875
-0.013438
-0.013625
-0.013562
-0.0135
-0.0135
-0.013625
-0.013687
-0.013813
-0.014062
-0.013562
-0.013687
-0.013625
-0.013375
-0.013938
-0.013687
-0.013938
-0.013687
-0.013875
-0.013875
-0.013625
-0.014062
-0.014062
-0.013875
-0.013875
-0.013813
-0.014
-0.014062
-0.014062
-0.01425
-0.014
-0.01375
-0.014187
-0.014125
-0.014125
-0.014313
-0.014375
-0.014438
-0.014062
-0.014187
-0.014187
-0.014187
-0.01425
-0.0145
-0.014375
-0.0145
-0.014625
-0.014562
-0.014625
-0.014562
-0.01475
-0.014438
-0.014625
-0.014687
-0.014687
-0.014687
-0.014813
-0.014937
-0.015062
-0.015313
-0.014813
-0.014875
-0.01525
-0.015125
-0.014813
-0.015188
-0.015437
-0.01525
-0.015125
-0.015125
-0.015188
-0.015062
-0.015375
-0.015313
-0.015437
-0.015375
-0.015375
-0.01525
-0.014937
-0.0155
-0.015313
-0.015562
-0.015375
-0.015375
-0.015687
-0.015375
-0.015562
-0.015625
-0.015625
-0.015313
-0.015687
-0.015437
-0.015437
-0.015687
-0.015812
-0.016062
-0.015625
-0.015625
-0.016062
-0.016
-0.015937
-0.01575
-0.015937
-0.016313
-0.015812
-0.015562
-0.015687
-0.016
-0.015812
-0.015937
-0.016062
-0.01625
-0.015937
-0.01625
-0.016562
-0.01625
-0.01625
-0.016313
-0.016562
-0.01625
-0.016562
-0.016438
-0.016687
-0.0165
-0.016812
-0.0165
-0.01625
-0.016687
-0.016812
-0.01675
-0.016625
-0.016687
-0.016875
-0.016625
-0.01675
-0.016812
-0.016875
-0.016875
-0.016875
-0.016937
-0.01725
-0.017
-0.016625
-0.016937
-0.016875
-0.016937
-0.017438
-0.01725
-0.016875
-0.017063
-0.016937
-0.01725
-0.017313
-0.017063
-0.0175
-0.017125
-0.016875
-0.017
-0.017375
-0.0175
-0.017562
-0.0175
-0.017687
-0.0175
-0.017625
-0.01775
-0.017375
-0.0175
-0.017625
-0.01775
-0.017438
-0.017438
-0.0175
-0.017438
-0.017812
-0.017812
-0.017938
-0.017938
-0.017938
-0.018188
-0.017812
-0.018
-0.018
-0.018125
-0.018375
-0.018375
-0.01825
-0.018188
-0.018375
-0.018125
-0.018375
-0.0185
-0.018437
-0.0185
-0.01875
-0.018687
-0.0185
-0.0185
-0.018562
-0.018625
-0.01875
-0.018375
-0.01875
-0.018375
-0.018562
-0.018875
-0.018938
-0.018812
-0.018562
-0.018875
-0.018875
-0.018812
-0.019063
-0.018812
-0.019125
-0.018562
-0.019
-0.018687
-0.0185
-0.018875
-0.019125
-0.019
-0.018875
-0.019063
-0.01925
-0.019063
-0.01875
-0.01925
-0.019687
-0.019437
-0.018938
-0.019375
-0.019312
-0.019063
-0.018938
-0.019312
-0.019375
-0.019
-0.019
-0.019375
-0.01925
-0.019188
-0.019437
-0.019875
-0.019813
-0.019562
-0.019375
-0.01975
-0.019687
-0.0195
-0.019687
-0.019813
-0.019562
-0.01975
-0.019875
-0.019875
-0.020063
-0.019938
-0.020125
-0.020125
-0.020125
-0.020063
-0.020312
-0.02
-0.020188
-0.02025
-0.020375
-0.020312
-0.020375
-0.020188
-0.020125
-0.02
-0.020312
-0.020625
-0.020437
-0.020125
-0.02025
-0.020562
-0.020375
-0.020188
-0.020875
-0.020562
-0.020375
-0.020813
-0.020312
-0.020688
-0.020688
-0.020688
-0.020625
-0.020437
-0.020625
-0.02075
-0.0205
-0.020813
-0.021
-0.021063
-0.020562
-0.020813
-0.02075
-0.020562
-0.020875
-0.021063
-0.021063
-0.020938
-0.020688
-0.02075
-0.020688
-0.020875
-0.021187
-0.021375
-0.021437
-0.021312
-0.021312
-0.021375
-0.021375
-0.021562
-0.021375
-0.0215
-0.021187
-0.02175
-0.021437
-0.02125
-0.02175
-0.021688
-0.021688
-0.021688
-0.021562
-0.021938
-0.021813
-0.021688
-0.021688
-0.021875
-0.021875
-0.021938
-0.021813
-0.021688
-0.021688
-0.021625
-0.021875
-0.022375
-0.022062
-0.021813
-0.022062
-0.022062
-0.022
-0.02175
-0.022187
-0.022187
-0.021813
-0.022
-0.022375
-0.021938
-0.0225
-0.0225
-0.022312
-0.022
-0.022187
-0.022312
-0.022187
-0.0225
-0.022375
-0.022563
-0.022
-0.022187
-0.02225
-0.022125
-0.022125
-0.022625
-0.022625
-0.022312
-0.022375
-0.0225
-0.022625
-0.022312
-0.022375
-0.022563
-0.02275
-0.022563
-0.022813
-0.02275
-0.02275
-0.022875
-0.022938
-0.023062
-0.022625
-0.022875
-0.023125
-0.022563
-0.023
-0.023062
-0.02325
-0.02275
-0.023125
-0.023375
-0.023187
-0.023062
-0.0235
-0.023563
-0.023438
-0.023375
-0.023125
-0.023438
-0.023062
-0.023
-0.023375
-0.023625
-0.023312
-0.02325
-0.023625
-0.023688
-0.02325
-0.023438
-0.023688
-0.023375
-0.023312
-0.023312
-0.023563
-0.023688
-0.023312
-0.023688
-0.023688
-0.023813
-0.023688
-0.02375
-0.023438
-0.0235
-0.023688
-0.023688
-0.02375
-0.023563
-0.02375
-0.02375
-0.023875
-0.024
-0.024125
-0.023813
-0.023625
-0.02375
-0.023688
-0.024125
-0.024062
-0.024125
-0.024125
-0.023937
-0.024062
-0.023937
-0.024062
-0.02425
-0.024125
-0.024688
-0.024062
-0.024125
-0.023937
-0.024375
-0.024062
-0.024375
-0.024688
-0.02425
-0.02425
-0.024312
-0.024312
-0.024438
-0.024375
-0.024625
-0.0245
-0.024312
-0.024688
-0.0245
-0.0245
-0.024625
-0.024625
-0.02475
-0.0245
-0.02425
-0.024688
-0.024937
-0.024688
-0.02475
-0.025
-0.024937
-0.024875
-0.024937
-0.025125
-0.024875
-0.025
-0.025125
-0.024625
-0.024625
-0.024937
-0.024875
-0.024875
-0.024625
-0.025187
-0.025125
-0.024688
-0.024813
-0.025125
-0.02475
-0.024813
-0.025187
-0.025187
-0.02525
-0.025
-0.025187
-0.025062
-0.025125
-0.024937
-0.025375
-0.025625
-0.02525
-0.025187
-0.025438
-0.025438
-0.0255
-0.025625
-0.025875
-0.025313
-0.025313
-0.025313
-0.025375
-0.025187
-0.025375
-0.025875
-0.025375
-0.025187
-0.025625
-0.025563
-0.025937
-0.025812
-0.025875
-0.025563
-0.02575
-0.02575
-0.02575
-0.025563
-0.026
-0.02575
-0.026062
-0.025688
-0.025688
-0.025688
-0.025688
-0.02575
-0.025937
-0.026062
-0.025688
-0.025688
-0.0255
-0.02575
-0.025625
-0.025937
-0.026062
-0.025812
-0.025812
-0.025625
-0.02575
-0.026
-0.025625
-0.025875
-0.025812
-0.026
-0.025625
-0.025563
-0.026125
-0.02575
-0.025688
-0.026062
-0.026
-0.026125
-0.026062
-0.025937
-0.025688
-0.026062
-0.025875
-0.025937
-0.02625
-0.026313
-0.02625
-0.026062
-0.02625
-0.02625
-0.026187
-0.026313
-0.0265
-0.026187
-0.025937
-0.02625
-0.02625
-0.02625
-0.02625
-0.026687
-0.02675
-0.02625
-0.026187
-0.026438
-0.026375
-0.02625
-0.026313
-0.026375
-0.026438
-0.026438
-0.026687
-0.02675
-0.026187
-0.0265
-0.02625
-0.026625
-0.026375
-0.026625
-0.026313
-0.02625
-0.026125
-0.026375
-0.026625
-0.026625
-0.026313
-0.026625
-0.026625
-0.026375
-0.026563
-0.02675
-0.026812
-0.026438
-0.026313
-0.026438
-0.0265
-0.0265
-0.026625
-0.026875
-0.026375
-0.026125
-0.026812
-0.026313
-0.026687
-0.02675
-0.026563
-0.026875
-0.026563
-0.026062
-0.0265
-0.026563
-0.026687
-0.02675
-0.026687
-0.026563
-0.026375
-0.026687
-0.02675
-0.02675
-0.026625
-0.026812
-0.027062
-0.026625
-0.026875
-0.027188
-0.026563
-0.026625
-0.026812
-0.027062
-0.026875
-0.026875
-0.026625
-0.026563
-0.02675
-0.026937
-0.027062
-0.02675
-0.02675
-0.026937
-0.02675
-0.026438
-0.026687
-0.02675
-0.026812
-0.026438
-0.026375
-0.0265
-0.026625
-0.026563
-0.026812
-0.026812
-0.026937
-0.026563
-0.026875
-0.026563
-0.02675
-0.026625
-0.026687
-0.026875
-0.0265
-0.026625
-0.0265
-0.026563
-0.026625
-0.026625
-0.026687
-0.026687
-0.026438
-0.026563
-0.026438
-0.027125
-0.02675
-0.026875
-0.026625
-0.026563
-0.026438
-0.0265
-0.027
-0.026625
-0.02675
-0.026875
-0.026875
-0.026812
-0.026625
-0.026937
-0.026875
-0.026937
-0.026625
-0.026812
-0.026375
-0.026625
-0.026812
-0.026875
-0.027188
-0.027062
-0.027125
-0.026937
-0.02675
-0.026875
-0.027
-0.026937
-0.026875
-0.027188
-0.026812
-0.027
-0.027
-0.027062
-0.026563
-0.026937
-0.027062
-0.027062
-0.02675
-0.026812
-0.027125
-0.026937
-0.027062
-0.027
-0.027062
-0.026937
-0.027188
-0.02675
-0.026937
-0.026937
-0.026812
-0.027
-0.026687
-0.026563
-0.026937
-0.026875
-0.026812
-0.026875
-0.026937
-0.02675
-0.026563
-0.026812
-0.027
-0.027188
-0.027
-0.026687
-0.026812
-0.026687
-0.026875
-0.026937
-0.026875
-0.027125
-0.027125
-0.027125
-0.027
-0.026937
-0.027188
-0.027313
-0.027062
-0.02725
-0.027062
-0.026937
-0.027
-0.02725
-0.026937
-0.02725
-0.027062
-0.027
-0.027313
-0.027062
-0.027125
-0.027563
-0.027625
-0.027438
-0.027313
-0.02725
-0.027313
-0.02725
-0.027188
-0.027375
-0.027375
-0.027313
-0.027438
-0.027375
-0.0275
-0.027563
-0.0275
-0.027438
-0.027563
-0.027375
-0.027563
-0.0275
-0.027438
-0.0275
-0.027313
-0.02725
-0.027062
-0.0275
-0.027563
-0.0275
-0.027438
-0.027438
-0.027438
-0.0275
-0.027875
-0.0275
-0.027563
-0.0275
-0.027625
-0.027125
-0.027687
-0.027625
-0.027438
-0.02725
-0.02775
-0.02725
-0.027375
-0.027687
-0.027563
-0.027375
-0.027687
-0.027438
-0.027812
-0.027625
-0.027625
-0.027687
-0.027687
-0.028125
-0.02775
-0.027812
-0.028188
-0.028125
-0.027625
-0.027937
-0.028063
-0.027875
-0.028
-0.028063
-0.027937
-0.028063
-0.02825
-0.028125
-0.028125
-0.027687
-0.028063
-0.027875
-0.02825
-0.028063
-0.027937
-0.028313
-0.028125
-0.028063
-0.028313
-0.028125
-0.028
-0.027937
-0.028188
-0.028375
-0.028125
-0.028063
-0.028375
-0.028313
-0.028375
-0.02825
-0.028313
-0.028063
-0.028
-0.02825
-0.028313
-0.02825
-0.028313
-0.02825
-0.02825
-0.0285
-0.0285
-0.028375
-0.02825
-0.02825
-0.0285
-0.028375
-0.028188
-0.028125
-0.028313
-0.0285
-0.0285
-0.0285
-0.028562
-0.0285
-0.028438
-0.028625
-0.028812
-0.028687
-0.028562
-0.028812
-0.0285
-0.028313
-0.028562
-0.029125
-0.028687
-0.029
-0.029125
-0.028875
-0.028937
-0.02875
-0.029
-0.028687
-0.028937
-0.028937
-0.028937
-0.029
-0.029
-0.028812
-0.028875
-0.028875
-0.028937
-0.029188
-0.028812
-0.028562
-0.028937
-0.029
-0.02925
-0.029188
-0.029125
-0.029
-0.028812
-0.029125
-0.028937
-0.02875
-0.028937
-0.02925
-0.028812
-0.028875
-0.028812
-0.029313
-0.029125
-0.029125
-0.02925
-0.029188
-0.02875
-0.029188
-0.029375
-0.028875
-0.029313
-0.029063
-0.029375
-0.029
-0.029125
-0.029063
-0.028937
-0.029
-0.029313
-0.029375
-0.029437
-0.029188
-0.029625
-0.029437
-0.0295
-0.029437
-0.029625
-0.029875
-0.029437
-0.029313
-0.029625
-0.029687
-0.029625
-0.029687
-0.03
-0.029562
-0.0295
-0.029812
-0.030188
-0.029875
-0.029687
-0.030063
-0.030063
-0.029938
-0.030063
-0.0295
-0.03
-0.029938
-0.029875
-0.02975
-0.029687
-0.02975
-0.029938
-0.030063
-0.029875
-0.030188
-0.030063
-0.030313
-0.029625
-0.03
-0.030063
-0.03
-0.02975
-0.030063
-0.029812
-0.030063
-0.030125
-0.030063
-0.029938
-0.029875
-0.029938
-0.030375
-0.03
-0.029812
-0.030125
-0.030063
-0.030313
-0.03025
-0.03025
-0.03025
-0.029938
-0.030188
-0.03
-0.029938
-0.030063
-0.030063
-0.03025
-0.030125
-0.030063
-0.03025
-0.030437
-0.030437
-0.03025
-0.030562
-0.030437
-0.03
-0.0305
-0.0305
-0.030188
-0.030625
-0.030562
-0.03075
-0.030437
-0.030562
-0.0305
-0.030562
-0.0305
-0.030687
-0.03075
-0.030375
-0.030562
-0.03075
-0.0305
-0.030437
-0.0305
-0.030625
-0.030687
-0.0305
-0.030562
-0.030938
-0.030938
-0.03075
-0.030813
-0.030562
-0.031
-0.030562
-0.03075
-0.030687
-0.030562
-0.03075
-0.030875
-0.031
-0.030875
-0.030875
-0.030687
-0.030813
-0.03075
-0.030875
-0.030875
-0.030687
-0.03075
-0.03075
-0.030813
-0.031063
-0.030875
-0.030875
-0.030938
-0.03075
-0.030813
-0.031063
-0.030938
-0.030687
-0.030625
-0.031
-0.031063
-0.030875
-0.031063
-0.031063
-0.03075
-0.030875
-0.031063
-0.031188
-0.03075
-0.03125
-0.031125
-0.031
-0.030938
-0.031063
-0.031375
-0.031375
-0.030875
-0.031562
-0.031063
-0.031312
-0.03125
-0.031312
-0.031188
-0.031
-0.031188
-0.031063
-0.03125
-0.031063
-0.0315
-0.03125
-0.03125
-0.031562
-0.031125
-0.031375
-0.030938
-0.031125
-0.03125
-0.03125
-0.031188
-0.031625
-0.03125
-0.03125
-0.031188
-0.031375
-0.03125
-0.03125
-0.031125
-0.031125
-0.031188
-0.031188
-0.0315
-0.03125
-0.031188
-0.03125
-0.031125
-0.031063
-0.031125
-0.031125
-0.03125
-0.031188
-0.03125
-0.031188
-0.031125
-0.031312
-0.031125
-0.031375
-0.031375
-0.031
-0.031438
-0.031375
-0.031562
-0.03125
-0.031562
-0.031438
-0.03125
-0.031438
-0.031813
-0.0315
-0.031375
-0.031562
-0.031375
-0.03125
-0.031312
-0.030938
-0.0315
-0.031375
-0.03125
-0.031562
-0.031312
-0.031188
-0.031562
-0.031375
-0.031438
-0.031063
-0.031375
-0.031375
-0.031188
-0.031188
-0.031625
-0.031312
-0.03125
-0.031188
-0.03125
-0.031375
-0.03125
-0.030813
-0.031312
-0.031375
-0.031188
-0.031562
-0.031125
-0.03125
-0.031063
-0.031438
-0.030938
-0.031188
-0.031188
-0.031312
-0.031188
-0.031125
-0.031312
-0.031312
-0.031063
-0.031312
-0.030875
-0.030938
-0.030813
-0.031
-0.030938
-0.030875
-0.030813
-0.031063
-0.031125
-0.030875
-0.031063
-0.031
-0.031063
-0.030813
-0.030938
-0.031312
-0.030938
-0.030875
-0.031063
-0.031125
-0.031125
-0.030938
-0.031125
-0.031063
-0.030938
-0.030938
-0.031125
-0.030875
-0.03125
-0.031188
-0.031063
-0.030813
-0.030875
-0.031125
-0.030938
-0.031063
-0.031063
-0.03075
-0.030625
-0.031188
-0.030938
-0.030875
-0.030687
-0.030562
-0.030875
-0.03125
-0.030687
-0.03075
-0.030875
-0.03075
-0.03075
-0.030562
-0.031063
-0.030375
-0.030375
-0.030375
-0.030188
-0.030313
-0.030625
-0.030625
-0.0305
-0.030375
-0.030562
-0.030125
-0.030063
-0.030313
-0.03025
-0.03025
-0.030188
-0.029938
-0.02975
-0.03
-0.030063
-0.030125
-0.029875
-0.030063
-0.03
-0.030125
-0.029875
-0.030125
-0.029875
-0.02975
-0.03
-0.029625
-0.029812
-0.02925
-0.029562
-0.029313
-0.029437
-0.029437
-0.028875
-0.029188
-0.029063
-0.029188
-0.02925
-0.029063
-0.02925
-0.028812
-0.028812
-0.028625
-0.028812
-0.028937
-0.028375
-0.028438
-0.028313
-0.028063
-0.02825
-0.028125
-0.02825
-0.02825
-0.027812
-0.027875
-0.027875
-0.0275
-0.02725
-0.027125
-0.027375
-0.027313
-0.027313
-0.02675
-0.0265
-0.026375
-0.026625
-0.026563
-0.026187
-0.026313
-0.025875
-0.025875
-0.025875
-0.025688
-0.025438
-0.025313
-0.025688
-0.02525
-0.024875
-0.024937
-0.02475
-0.024375
-0.024187
-0.024125
-0.024125
-0.023688
-0.023875
-0.023688
-0.023688
-0.023062
-0.02325
-0.023125
-0.022688
-0.022437
-0.02225
-0.022563
-0.022062
-0.021875
-0.021813
-0.021312
-0.021125
-0.021
-0.021
-0.020688
-0.020562
-0.0205
-0.02
-0.019687
-0.0195
-0.0195
-0.019188
-0.018687
-0.018812
-0.018562
-0.017875
-0.017938
-0.017438
-0.017438
-0.01725
-0.01725
-0.016875
-0.016687
-0.016313
-0.016313
-0.015875
-0.015687
-0.015687
-0.01525
-0.01475
-0.01475
-0.014438
-0.014313
-0.013687
-0.013625
-0.013562
-0.013562
-0.012812
-0.013
-0.012625
-0.012063
-0.011937
-0.012
-0.011563
-0.010937
-0.010937
-0.010812
-0.010437
-0.010375
-0.0099375
-0.009875
-0.009375
-0.009125
-0.0090625
-0.009
-0.008625
-0.0085
-0.00825
-0.0080625
-0.007875
-0.0075
-0.0074375
-0.00725
-0.0066875
-0.0068125
-0.0066875
-0.006125
-0.0056875
-0.0055625
-0.0055625
-0.005
-0.0049375
-0.004875
-0.0043125
-0.0043125
-0.004375
-0.0039375
-0.0035625
-0.0034375
-0.0030625
-0.0024375
-0.0025625
-0.002375
-0.00225
-0.001875
-0.0018125
-0.0018125
-0.001375
-0.0009375
-0.0010625
-0.0008125
-0.0004375
-6.25e-05
-0.000125
0.000125
0.000125
0.0005625
0.000875
0.0010625
0.000875
0.00125
0.001625
0.0019375
0.0019375
0.0019375
0.0019375
0.002375
0.002875
0.0025
0.003
0.0034375
0.0035
0.003375
0.003625
0.0043125
0.004125
0.0041875
0.0046875
0.004625
0.0045
0.0048125
0.005
0.005375
0.005125
0.0054375
0.00575
0.0058125
0.0059375
0.006
0.006375
0.006
0.006125
0.00675
0.00675
0.00675
0.0069375
0.0068125
0.0069375
0.00725
0.0075625
0.0075
0.007625
0.0075625
0.00775
0.00825
0.0079375
0.0085
0.0085625
0.0085
0.0089375
0.008875
0.0091875
0.008875
0.00925
0.009625
0.0095
0.0094375
0.0095
0.009625
0.0098125
0.0099375
0.010188
0.010188
0.010313
0.010062
0.010313
0.010562
0.010688
0.01075
0.010875
0.010812
0.011063
0.010812
0.011063
0.010937
0.011437
0.011375
0.0115
0.011375
0.011688
0.011625
0.01175
0.012063
0.012063
0.011937
0.012063
0.012063
0.012
0.011937
0.012312
0.01225
0.012125
0.012375
0.012438
0.01225
0.012063
0.0125
0.012812
0.012875
0.012875
0.012687
0.013125
0.013063
0.012875
0.013125
0.013125
0.012687
0.013187
0.013125
0.01325
0.013063
0.013438
0.013312
0.013187
0.01325
0.01325
0.01325
0.013312
0.013063
0.013687
0.013687
0.01375
0.01375
0.013875
0.013625
0.013687
0.013813
0.013938
0.01375
0.014125
0.013938
0.014313
0.014
0.013938
0.014
0.014062
0.014313
0.014
0.014062
0.013875
0.014187
0.014187
0.014125
0.014187
0.014
0.014375
0.013813
0.014
0.014687
0.014562
0.0145
0.014438
0.014187
0.014
0.014375
0.014187
0.014438
0.01425
0.014438
0.014187
0.014187
0.014062
0.014062
0.014187
0.013938
0.014062
0.01425
0.014187
0.014375
0.014125
0.014187
0.01425
0.014
0.014062
0.014
0.014
0.01425
0.01425
0.014313
0.014125
0.013875
0.014438
0.014313
0.014125
0.013938
0.014187
0.014125
0.014
0.013813
0.014125
0.014313
0.013687
0.014375
0.014187
0.014125
0.01375
0.014062
0.013938
0.01375
0.01425
0.014062
0.013938
0.014125
0.013562
0.01375
0.013625
0.013687
0.013625
0.013938
0.013875
0.014
0.0135
0.013687
0.013625
0.013813
0.013687
0.013687
0.013938
0.013813
0.013687
0.013625
0.013125
0.013438
0.0135
0.01325
0.013312
0.013312
0.013312
0.013187
0.013187
0.013375
0.013312
0.013125
0.01325
0.013
0.013
0.013125
0.013187
0.013125
0.01275
0.012812
0.012625
0.012563
0.012875
0.013125
0.012563
0.012687
0.012625
0.012625
0.012812
0.012687
0.012563
0.012812
0.012438
0.01225
0.012563
0.0125
0.012438
0.012625
0.012938
0.012625
0.012375
0.012125
0.01225
0.012125
0.01225
0.012375
0.012312
0.012125
0.012312
0.012063
0.012
0.011937
0.012125
0.011937
0.012187
0.012
0.011937
0.011625
0.0115
0.01175
0.01175
0.01175
0.011625
0.01175
0.011563
0.0115
0.011437
0.0115
0.011312
0.011437
0.011312
0.011437
0.011375
0.011125
0.011125
0.010937
0.010937
0.011063
0.011125
0.010937
0.010625
0.01125
0.010812
0.01075
0.010625
0.010812
0.010688
0.010562
0.010313
0.010812
0.010313
0.010188
0.010625
0.010437
0.010625
0.010375
0.010562
0.010125
0.010188
0.010313
0.010437
0.010188
0.009875
0.010188
0.010313
0.010062
0.010062
0.01
0.010125
0.0099375
0.01
0.01
0.01
0.01
0.009625
0.00975
0.0094375
0.0096875
0.009875
0.009625
0.009375
0.009375
0.0095625
0.0098125
0.00925
0.0095
0.0094375
0.0095
0.009375
0.0094375
0.0090625
0.00925
0.0089375
0.009125
0.00925
0.009
0.00875
0.0089375
0.0089375
0.00875
0.00875
0.0088125
0.0086875
0.00875
0.0085625
0.00875
0.0085
0.0085625
0.008625
0.008375
0.0085625
0.008375
0.0084375
0.007875
0.00825
0.0083125
0.0081875
0.0079375
0.008375
0.0083125
0.0083125
0.0081875
0.0084375
0.008375
0.007625
0.0079375
0.007875
0.00775
0.007625
0.0078125
0.007875
0.00775
0.0075
0.0075625
0.0079375
0.0075625
0.0075
0.0075
0.007375
0.007625
0.0079375
0.0074375
0.0074375
0.007375
0.0075
0.0075
0.007375
0.00725
0.0070625
0.0071875
0.007
0.0071875
0.0071875
0.006625
0.007125
0.0073125
0.007
0.00675
0.007
0.0069375
0.0069375
0.00675
0.0066875
0.0065
0.00625
0.0064375
0.00675
0.006625
0.0065625
0.00625
0.006125
0.006375
0.006125
0.0064375
0.0063125
0.0061875
0.0063125
0.0060625
0.0058125
0.005875
0.0059375
0.00625
0.0061875
0.0060625
0.0060625
0.0061875
0.0058125
0.00575
0.005875
0.005875
0.0056875
0.00575
0.0056875
0.005625
0.0054375
0.0056875
0.005375
0.00575
0.0054375
0.0055625
0.005625
0.0054375
0.0054375
0.00575
0.0054375
0.0056875
0.005625
0.0056875
0.005375
0.0049375
0.0055
0.005125
0.0051875
0.0050625
0.00525
0.0050625
0.005125
0.00525
0.00475
0.0050625
0.005
0.0050625
0.005125
0.0048125
0.005
0.0051875
0.004625
0.004875
0.0045
0.0046875
0.004875
0.004125
0.0045
0.0045625
0.0041875
0.004125
0.0044375
0.004125
0.0040625
0.0045
0.0041875
0.004375
0.0043125
0.0040625
0.0040625
0.004
0.0036875
0.0043125
0.004
0.003875
0.00375
0.00375
0.003625
0.0039375
0.0039375
0.004125
0.00375
0.00375
0.00375
0.0036875
0.0036875
0.003375
0.0034375
0.00375
0.0035
0.0033125
0.0035
0.0033125
0.003125
0.003
0.003625
0.003625
0.0034375
0.0035625
0.0034375
0.0031875
0.003
0.0031875
0.003375
0.003125
0.0029375
0.002875
0.003125
0.003
0.002875
0.0030625
0.0033125
0.0029375
0.0030625
0.003125
0.00275
0.002375
0.0024375
0.002875
0.002625
0.0024375
0.0025
0.0024375
0.0024375
0.002125
0.0023125
0.002125
0.00225
0.0021875
0.002125
0.0023125
0.002125
0.002125
0.0019375
0.0018125
0.0016875
0.00175
0.0016875
0.0015
0.0014375
0.0016875
0.00175
0.001625
0.00175
0.0014375
0.0013125
0.0013125
0.001375
0.001625
0.0013125
0.001
0.0015
0.001
0.000875
0.0008125
0.00125
0.0006875
0.000875
0.001125
0.000625
0.000375
0.0005625
0.000625
0.0005
0.0006875
0.000625
0.0005
0.0003125
0.000125
0.000125
-0
0.000125
-0.00025
-0.00025
-0.0001875
-0.0005
0.000125
0.00025
-0.000125
-0.0001875
-0.00025
0.000125
-0.0005
-0.0004375
-0.0004375
-0.0004375
-0.0004375
-0.0004375
-0.0005
-0.0008125
-0.0008125
-0.00125
-0.0008125
-0.0009375
-0.0013125
-0.001
-0.001
-0.0011875
-0.0010625
-0.0010625
-0.0009375
-0.001125
-0.001375
-0.001125
-0.0011875
-0.0015625
-0.0015
-0.0014375
-0.001625
-0.001625
-0.0013125
-0.0018125
-0.001625
-0.001875
-0.0015625
-0.0018125
-0.001875
-0.00175
-0.0016875
-0.0016875
-0.00225
-0.0019375
-0.0018125
-0.002
-0.00225
-0.0020625
-0.002125
-0.00225
-0.002125
-0.0019375
-0.002125
-0.002125
-0.00225
-0.002375
-0.002375
-0.002875
-0.002375
-0.0025
-0.0026875
-0.0024375
-0.002625
-0.0026875
-0.0029375
-0.0025625
-0.0025
-0.0025625
-0.0026875
-0.0025625
-0.0025
-0.002875
-0.0029375
-0.002875
-0.0030625
-0.003
-0.0034375
-0.003375
-0.0035625
-0.0035625
-0.003375
-0.00325
-0.0034375
-0.003625
-0.0035625
-0.0038125
-0.004
-0.00375
-0.00375
-0.003875
-0.0043125
-0.0039375
-0.004125
-0.004375
-0.0040625
-0.004375
-0.004375
-0.0044375
-0.004375
-0.00425
-0.0045
-0.0045
-0.0046875
-0.0045
-0.0045625
-0.00475
-0.0048125
-0.0049375
-0.005
-0.004875
-0.0048125
-0.005
-0.0048125
-0.00475
-0.0046875
-0.00525
-0.0053125
-0.0049375
-0.0051875
-0.0050625
-0.0053125
-0.0051875
-0.0053125
-0.0054375
-0.0055625
-0.005375
-0.005375
-0.0053125
-0.005375
-0.0055625
-0.0058125
-0.0058125
-0.0054375
-0.0055
-0.0055625
-0.006
-0.0059375
-0.006125
-0.006125
-0.006
-0.0060625
-0.006
-0.00625
-0.006125
-0.0061875
-0.0064375
-0.006375
-0.0066875
-0.00675
-0.0068125
-0.00675
-0.006875
-0.00725
-0.0070625
-0.0064375
-0.0064375
-0.0070625
-0.0070625
-0.00725
-0.00725
-0.00725
-0.007125
-0.00725
-0.007375
-0.0073125
-0.0071875
-0.0073125
-0.00725
-0.007
-0.0074375
-0.0075625
-0.007375
-0.0075
-0.007375
-0.0079375
-0.0074375
-0.0073125
-0.0078125
-0.007875
-0.00775
-0.0079375
-0.008
-0.008
-0.007625
-0.007875
-0.0080625
-0.0078125
-0.0078125
-0.0078125
-0.0079375
-0.0078125
-0.00775
-0.0083125
-0.0083125
-0.008375
-0.00825
-0.0081875
-0.008375
-0.008375
-0.0083125
-0.008125
-0.008375
-0.008125
-0.00825
-0.0081875
-0.008375
-0.0085
-0.0085625
-0.008875
-0.0086875
-0.0089375
-0.008875
-0.008875
-0.0085625
-0.0088125
-0.0088125
-0.0089375
-0.0091875
-0.009125
-0.008875
-0.00875
-0.0089375
-0.0090625
-0.009
-0.0091875
-0.0093125
-0.0090625
-0.00925
-0.009375
-0.0093125
-0.0095
-0.0088125
-0.00925
-0.0095
-0.0090625
-0.009125
-0.009125
-0.009625
-0.0094375
-0.0095625
-0.0094375
-0.00925
-0.00925
-0.009375
-0.009375
-0.00925
-0.0094375
-0.0095625
-0.0096875
-0.00925
-0.0094375
-0.0091875
-0.009625
-0.0096875
-0.0093125
-0.009375
-0.0093125
-0.00925
-0.0094375
-0.0095625
-0.009625
-0.009375
-0.0095
-0.009375
-0.0094375
-0.0095625
-0.009375
-0.0094375
-0.0094375
-0.0095625
-0.00975
-0.0095
-0.0095625
-0.0096875
-0.0095
-0.0095625
-0.0095625
-0.0098125
-0.009625
-0.0095
-0.009875
-0.0095625
-0.0095
-0.0096875
-0.01
-0.009625
-0.00975
-0.0096875
-0.0098125
-0.0094375
-0.0096875
-0.00975
-0.0098125
-0.009625
-0.0096875
-0.010125
-0.009625
-0.0098125
-0.0096875
-0.009875
-0.010062
-0.009625
-0.0099375
-0.0095625
-0.009625
-0.0095625
-0.0099375
-0.0096875
-0.0096875
-0.0096875
-0.00975
-0.0095
-0.0094375
-0.0095625
-0.0098125
-0.009625
-0.009625
-0.00975
-0.0096875
-0.00925
-0.0094375
-0.0095
-0.0096875
-0.00925
-0.00925
-0.0095625
-0.0094375
-0.009625
-0.0096875
-0.0095625
-0.0094375
-0.0095
-0.0094375
-0.009625
-0.0093125
-0.0095625
-0.009625
-0.0095625
-0.0095
-0.0095
-0.0098125
-0.009625
-0.0096875
-0.0095625
-0.0098125
-0.0099375
-0.0094375
-0.0096875
-0.0094375
-0.0095625
-0.009625
-0.0095
-0.0094375
-0.0094375
-0.009375
-0.0096875
-0.009625
-0.0096875
-0.0099375
-0.010062
-0.00975
-0.009625
-0.009625
-0.00975
-0.009875
-0.0096875
-0.010125
-0.0096875
-0.00975
-0.0095
-0.0096875
-0.0095625
-0.009625
-0.00975
-0.00975
-0.0093125
-0.0096875
-0.0096875
-0.0094375
-0.009375
-0.0098125
-0.0094375
-0.009375
-0.009375
-0.0095625
-0.00925
-0.0093125
-0.00925
-0.0090625
-0.0091875
-0.00925
-0.0095
-0.009125
-0.00925
-0.0094375
-0.0094375
-0.00925
-0.0094375
-0.0091875
-0.0090625
-0.009
-0.009125
-0.009125
-0.009125
-0.0086875
-0.009125
-0.009
-0.00925
-0.00925
-0.0090625
-0.00925
-0.0091875
-0.00925
-0.0091875
-0.0089375
-0.0094375
-0.0095
-0.009375
-0.0091875
-0.0088125
-0.00925
-0.0091875
-0.0091875
-0.0091875
-0.008875
-0.009
-0.0089375
-0.0090625
-0.0091875
-0.0090625
-0.009
-0.00925
-0.009375
-0.0085625
-0.0088125
-0.0089375
-0.0090625
-0.0091875
-0.009125
-0.00925
-0.009125
-0.0088125
-0.0089375
-0.0090625
-0.0089375
-0.009125
-0.00925
-0.0086875
-0.0085625
-0.0089375
-0.0089375
-0.0088125
-0.008875
-0.0090625
-0.009
-0.0085625
-0.0088125
-0.009
-0.008875
-0.0089375
-0.0091875
-0.0091875
-0.0085625
-0.00875
-0.0086875
-0.008625
-0.008625
-0.0085
-0.0088125
-0.00875
-0.009
-0.0088125
-0.0089375
-0.00875
-0.0089375
-0.0089375
-0.009375
-0.0089375
-0.008875
-0.009
-0.00875
-0.008875
-0.0090625
-0.00925
-0.009
-0.009
-0.009
-0.0089375
-0.00875
-0.0090625
-0.00925
-0.008875
-0.00925
-0.009
-0.0090625
-0.0090625
-0.0089375
-0.009125
-0.0091875
-0.0088125
-0.0089375
-0.0090625
-0.0090625
-0.009
-0.009
-0.009125
-0.0090625
-0.009
-0.008875
-0.009
-0.00925
-0.009
-0.0093125
-0.008875
-0.0086875
-0.00925
-0.009375
-0.008875
-0.0090625
-0.0093125
-0.0091875
-0.008875
-0.0090625
-0.0091875
-0.0090625
-0.009125
-0.0091875
-0.009125
-0.0090625
-0.009125
-0.0091875
-0.0090625
-0.0090625
-0.0090625
-0.0093125
-0.009
-0.0090625
-0.0090625
-0.0093125
-0.0093125
-0.0090625
-0.0094375
-0.0095625
-0.0091875
-0.009625
-0.0094375
-0.0096875
-0.0096875
-0.0095625
-0.009375
-0.009375
-0.0091875
-0.0095
-0.00925
-0.0093125
-0.0095
-0.009625
-0.0096875
-0.0096875
-0.009875
-0.0095625
-0.0095
-0.0099375
-0.00975
-0.009625
-0.0095625
-0.009375
-0.0095
-0.0096875
-0.0099375
-0.0099375
-0.0099375
-0.0096875
-0.009625
-0.0099375
-0.0096875
-0.0099375
-0.0099375
-0.010062
-0.010062
-0.0096875
-0.009875
-0.010062
-0.0096875
-0.01025
-0.010375
-0.009875
-0.00975
-0.009875
-0.01
-0.00975
-0.01025
-0.00975
-0.010125
-0.0099375
-0.00975
-0.009875
-0.010188
-0.010188
-0.010375
-0.010125
-0.010062
-0.009875
-0.009875
-0.010125
-0.010313
-0.010375
-0.01025
-0.010375
-0.010375
-0.01025
-0.010562
-0.010625
-0.010313
-0.010562
-0.010625
-0.010562
-0.01075
-0.0105
-0.010437
-0.010688
-0.010437
-0.010688
-0.010812
-0.010562
-0.010625
-0.010688
-0.011063
-0.010688
-0.01075
-0.010937
-0.01075
-0.010812
-0.010812
-0.010812
-0.010437
-0.010562
-0.011063
-0.010688
-0.010625
-0.01075
-0.011063
-0.011
-0.010625
-0.011063
-0.011188
-0.010875
-0.011
-0.011063
-0.011125
-0.011063
-0.011188
-0.010875
-0.010812
-0.011
-0.010812
-0.011125
-0.011188
-0.011312
-0.011063
-0.01125
-0.01125
-0.011125
-0.011
-0.01125
-0.011188
-0.011563
-0.01125
-0.011312
-0.011312
-0.01125
-0.011312
-0.01125
-0.01125
-0.01175
-0.01125
-0.011875
-0.011563
-0.011437
-0.011437
-0.01175
-0.012
-0.011625
-0.011937
-0.011875
-0.011437
-0.012125
-0.011937
-0.012
-0.012
-0.012063
-0.012063
-0.011812
-0.012063
-0.011937
-0.011937
-0.012312
-0.012063
-0.011875
-0.01225
-0.012063
-0.012063
-0.011937
-0.011937
-0.011875
-0.011812
-0.011875
-0.012312
-0.012125
-0.012312
-0.012063
-0.01275
-0.012125
-0.01225
-0.01225
-0.012312
-0.012438
-0.012563
-0.012125
-0.012375
-0.012312
-0.012125
-0.012687
-0.012375
-0.01275
-0.0125
-0.0125
-0.012375
-0.01275
-0.0125
-0.012563
-0.012563
-0.012938
-0.012625
-0.012375
-0.0125
-0.012563
-0.0125
-0.012625
-0.013
-0.013125
-0.012875
-0.012938
-0.01325
-0.013
-0.013
-0.013312
-0.013312
-0.013125
-0.012875
-0.013125
-0.013063
-0.013375
-0.013063
-0.01325
-0.013125
-0.013312
-0.013187
-0.013375
-0.013125
-0.013125
-0.013375
-0.013438
-0.013125
-0.013187
-0.013562
-0.0135
-0.013187
-0.013438
-0.013813
-0.013625
-0.013625
-0.013813
-0.013687
-0.0135
-0.013625
-0.013687
-0.013625
-0.013562
-0.013813
-0.013813
-0.01375
-0.013875
-0.013875
-0.0135
-0.0135
-0.013562
-0.013938
-0.014
-0.013687
-0.014062
-0.01425
-0.014125
-0.014
-0.013938
-0.013813
-0.013938
-0.013687
-0.014062
-0.014062
-0.01375
-0.014
-0.014187
-0.01425
-0.014125
-0.01425
-0.014375
-0.01425
-0.014438
-0.014687
-0.01425
-0.014375
-0.014375
-0.014562
-0.0145
-0.014438
-0.0145
-0.014875
-0.014687
-0.014375
-0.0145
-0.014562
-0.014875
-0.014687
-0.014875
-0.014937
-0.014937
-0.015062
-0.015125
-0.014937
-0.014875
-0.014937
-0.015062
-0.014687
-0.015062
-0.015125
-0.015125
-0.015188
-0.015313
-0.015062
-0.015313
-0.015062
-0.015062
-0.015125
-0.015375
-0.0155
-0.01525
-0.01525
-0.015437
-0.015188
-0.015437
-0.015313
-0.015062
-0.015062
-0.015125
-0.01525
-0.01525
-0.0155
-0.01575
-0.01525
-0.01525
-0.015687
-0.015687
-0.015625
-0.0155
-0.0155
-0.01575
-0.015562
-0.015562
-0.015125
-0.015812
-0.015437
-0.015875
-0.016062
-0.015625
-0.015875
-0.015875
-0.016062
-0.016062
-0.01575
-0.01625
-0.016375
-0.015937
-0.016
-0.016188
-0.01625
-0.016375
-0.016188
-0.016438
-0.016062
-0.0165
-0.016562
-0.01625
-0.016313
-0.016375
-0.016687
-0.016562
-0.016125
-0.016625
-0.016313
-0.0165
-0.016438
-0.016313
-0.016875
-0.01675
-0.0165
-0.016625
-0.016687
-0.0165
-0.016625
-0.016875
-0.016812
-0.01675
-0.016687
-0.016875
-0.016812
-0.016562
-0.016687
-0.016937
-0.016625
-0.016812
-0.016937
-0.016812
-0.016937
-0.017063
-0.01725
-0.016937
-0.017063
-0.017063
-0.01725
-0.017125
-0.017125
-0.017375
-0.017
-0.017188
-0.017313
-0.017375
-0.017063
-0.017188
-0.017375
-0.017562
-0.017375
-0.017562
-0.017687
-0.017625
-0.017687
-0.017687
-0.017938
-0.017375
-0.017625
-0.017625
-0.017625
-0.017687
-0.01775
-0.018063
-0.017625
-0.017625
-0.01775
-0.018063
-0.018063
-0.017875
-0.018313
-0.01825
-0.018063
-0.018313
-0.018375
-0.018188
-0.018063
-0.018375
-0.01825
-0.018375
-0.018437
-0.018375
-0.018125
-0.018375
-0.018188
-0.018687
-0.0185
-0.018125
-0.018063
-0.018313
-0.018313
-0.018125
-0.018375
-0.018437
-0.018125
-0.018063
-0.018437
-0.018188
-0.018562
-0.018375
-0.01875
-0.018625
-0.018562
-0.018375
-0.018562
-0.018562
-0.018938
-0.018625
-0.01875
-0.018437
-0.018625
-0.018625
-0.018437
-0.018562
-0.018938
-0.019
-0.018687
-0.018625
-0.018938
-0.018625
-0.018812
-0.019312
-0.01925
-0.019063
-0.01875
-0.019
-0.019063
-0.019125
-0.018938
-0.018875
-0.019375
-0.01925
-0.019625
-0.019813
-0.019312
-0.0195
-0.0195
-0.019687
-0.019625
-0.0195
-0.019875
-0.01925
-0.0195
-0.019375
-0.019625
-0.019437
-0.019562
-0.019625
-0.019625
-0.019625
-0.01925
-0.019562
-0.019938
-0.019437
-0.019687
-0.019875
-0.019687
-0.019875
-0.019625
-0.019813
-0.019687
-0.019938
-0.019813
-0.019875
-0.019687
-0.02025
-0.020125
-0.019687
-0.01975
-0.02025
-0.02025
-0.020188
-0.0205
-0.020312
-0.0205
-0.020125
-0.020063
-0.02025
-0.020063
-0.02
-0.020188
-0.020562
-0.020437
-0.020375
-0.020437
-0.020375
-0.0205
-0.02025
-0.020875
-0.0205
-0.020312
-0.020562
-0.020625
-0.020437
-0.0205
-0.021063
-0.021
-0.020688
-0.02075
-0.020813
-0.020938
-0.021187
-0.021063
-0.021375
-0.021
-0.020875
-0.021312
-0.020875
-0.020875
-0.021125
-0.020938
-0.02125
-0.021063
-0.020938
-0.020875
-0.021312
-0.020875
-0.021125
-0.02125
-0.021063
-0.021063
-0.021063
-0.021063
-0.021375
-0.021437
-0.0215
-0.02125
-0.021562
-0.021562
-0.021375
-0.021187
-0.021375
-0.021187
-0.021375
-0.021562
-0.021375
-0.021688
-0.0215
-0.0215
-0.021375
-0.021562
-0.021375
-0.021312
-0.0215
-0.021437
-0.021688
-0.021688
-0.021938
-0.021688
-0.021437
-0.021625
-0.021562
-0.021813
-0.022
-0.022062
-0.021813
-0.021688
-0.021875
-0.022062
-0.022375
-0.021938
-0.022187
-0.022125
-0.021688
-0.022062
-0.02225
-0.022312
-0.022187
-0.022187
-0.0225
-0.022125
-0.022125
-0.022437
-0.022187
-0.022062
-0.022062
-0.0225
-0.022312
-0.022187
-0.022125
-0.022563
-0.022375
-0.022125
-0.022563
-0.0225
-0.02225
-0.022312
-0.022563
-0.0225
-0.022312
-0.022375
-0.022563
-0.022312
-0.022375
-0.0225
-0.02275
-0.022875
-0.022813
-0.02275
-0.022688
-0.022688
-0.022688
-0.022688
-0.022688
-0.022875
-0.022813
-0.0225
-0.022563
-0.0225
-0.022625
-0.0225
-0.02275
-0.02275
-0.022625
-0.023062
-0.022938
-0.022688
-0.022875
-0.023062
-0.02275
-0.022813
-0.023438
-0.02275
-0.023187
-0.023125
-0.023563
-0.023125
-0.02325
-0.023062
-0.023062
-0.022938
-0.023
-0.023312
-0.023187
-0.02325
-0.023563
-0.023375
-0.023312
-0.02325
-0.02325
-0.023375
-0.02325
-0.0235
-0.023375
-0.02325
-0.023625
-0.023688
-0.023375
-0.0235
-0.023062
-0.02325
-0.023375
-0.023125
-0.0235
-0.023625
-0.023375
-0.023312
-0.02375
-0.023625
-0.02325
-0.023375
-0.023625
-0.023625
-0.023625
-0.0235
-0.023375
-0.023375
-0.023312
-0.023563
-0.02375
-0.023563
-0.023625
-0.02375
-0.023625
-0.023375
-0.023438
-0.023625
-0.023688
-0.023625
-0.023688
-0.023937
-0.023813
-0.023813
-0.023875
-0.024
-0.024
-0.023813
-0.024312
-0.024
-0.023813
-0.024062
-0.024125
-0.024125
-0.024062
-0.0245
-0.024125
-0.023813
-0.023937
-0.02425
-0.024062
-0.023875
-0.024312
-0.024625
-0.024125
-0.02425
-0.024375
-0.024312
-0.02425
-0.024
-0.024625
-0.024312
-0.024312
-0.024438
-0.02425
-0.024312
-0.024438
-0.0245
-0.024438
-0.024187
-0.024375
-0.024563
-0.024625
-0.0245
-0.024563
-0.024438
-0.02425
-0.02425
-0.024375
-0.024375
-0.02425
-0.024312
-0.024438
-0.024438
-0.024375
-0.024688
-0.024438
-0.024375
-0.024688
-0.024688
-0.024563
-0.024125
-0.024438
-0.0245
-0.02425
-0.024312
-0.024312
-0.024438
-0.024563
-0.024563
-0.0245
-0.024438
-0.024875
-0.024875
-0.024937
-0.02475
-0.024813
-0.024688
-0.024813
-0.024813
-0.02475
-0.024937
-0.024813
-0.024625
-0.025125
-0.025125
-0.025
-0.025062
-0.02525
-0.025062
-0.025062
-0.024937
-0.025
-0.025062
-0.025
-0.025062
-0.025187
-0.025062
-0.024937
-0.025187
-0.025313
-0.024937
-0.025
-0.025187
-0.025
-0.025125
-0.025313
-0.024937
-0.025187
-0.025062
-0.025438
-0.02525
-0.024937
-0.024937
-0.025125
-0.025
-0.02475
-0.0255
-0.025187
-0.025062
-0.02525
-0.025187
-0.025187
-0.025125
-0.025062
-0.025062
-0.025313
-0.025313
-0.02525
-0.025125
-0.025438
-0.02525
-0.025313
-0.025
-0.024875
-0.025313
-0.025375
-0.025563
-0.0255
-0.025375
-0.025625
-0.0255
-0.02525
-0.025438
-0.0255
-0.025688
-0.025563
-0.025563
-0.025688
-0.0255
-0.025375
-0.025375
-0.025875
-0.025563
-0.025563
-0.025875
-0.025563
-0.025563
-0.02575
-0.025875
-0.0255
-0.025812
-0.026062
-0.025937
-0.025375
-0.025563
-0.02575
-0.02575
-0.025625
-0.026062
-0.025812
-0.025688
-0.025625
-0.0255
-0.025875
-0.025563
-0.0255
-0.025625
-0.025688
-0.025937
-0.025875
-0.025563
-0.025688
-0.025625
-0.026
-0.025563
-0.02575
-0.025937
-0.026
-0.02575
-0.025937
-0.025937
-0.025875
-0.025812
-0.025563
-0.025688
-0.025563
-0.02575
-0.025688
-0.025937
-0.025937
-0.025812
-0.025688
-0.026187
-0.025937
-0.026187
-0.02625
-0.026062
-0.025875
-0.025875
-0.026062
-0.026062
-0.026187
-0.026313
-0.02625
-0.025937
-0.02625
-0.02625
-0.02625
-0.02625
-0.026187
-0.02675
-0.026187
-0.0265
-0.02625
-0.0265
-0.02625
-0.026375
-0.026563
-0.026187
-0.025875
-0.02625
-0.02625
-0.026375
-0.026313
-0.02625
-0.026125
-0.02625
-0.026187
-0.026125
-0.026187
-0.02625
-0.026313
-0.026375
-0.02625
-0.026313
-0.0265
-0.026313
-0.026313
-0.026438
-0.026375
-0.026438
-0.02625
-0.02625
-0.0265
-0.026438
-0.0265
-0.026625
-0.026625
-0.026375
-0.026375
-0.026375
-0.026375
-0.026438
-0.026438
-0.026313
-0.026313
-0.02625
-0.026125
-0.026375
-0.026438
-0.026625
-0.0265
-0.02625
-0.026687
-0.026438
-0.026812
-0.02625
-0.026687
-0.026687
-0.02675
-0.026563
-0.02675
-0.026563
-0.026812
-0.026687
-0.02675
-0.026812
-0.026875
-0.0265
-0.026875
-0.026875
-0.026812
-0.026625
-0.026875
-0.027
-0.026875
-0.02675
-0.026563
-0.02675
-0.026937
-0.026875
-0.027188
-0.027062
-0.026563
-0.0265
-0.026812
-0.0265
-0.027062
-0.027125
-0.027188
-0.026687
-0.026438
-0.026625
-0.026812
-0.026812
-0.027125
-0.026875
-0.0265
-0.02675
-0.026625
-0.026687
-0.026812
-0.027062
-0.027
-0.026875
-0.026687
-0.026937
-0.026812
-0.026812
-0.027
-0.027
-0.026812
-0.026812
-0.026812
-0.027062
-0.027
-0.026625
-0.026937
-0.027188
-0.026812
-0.026937
-0.027062
-0.027
-0.026812
-0.027
-0.027375
-0.026875
-0.027313
-0.027125
-0.027313
-0.027125
-0.027375
-0.0275
-0.027062
-0.027062
-0.027062
-0.02725
-0.027062
-0.02725
-0.027313
-0.027125
-0.026937
-0.027125
-0.027125
-0.026875
-0.027313
-0.027125
-0.027313
-0.027
-0.02725
-0.027313
-0.027188
-0.027563
-0.027313
-0.02725
-0.027125
-0.026875
-0.027313
-0.027188
-0.027062
-0.027438
-0.027438
-0.027375
-0.027062
-0.027188
-0.02725
-0.02725
-0.027313
-0.02775
-0.027188
-0.027062
-0.027438
-0.027625
-0.027375
-0.026937
-0.026937
-0.02725
-0.027375
-0.027125
-0.027
-0.027062
-0.02725
-0.0275
-0.027313
-0.027125
-0.027812
-0.027313
-0.027438
-0.02775
-0.027313
-0.02725
-0.02775
-0.027563
-0.02775
-0.027438
-0.027687
-0.02775
-0.027687
-0.02725
-0.02775
-0.028063
-0.027563
-0.027625
-0.02775
-0.027875
-0.027563
-0.027875
-0.027687
-0.027375
-0.027313
-0.027563
-0.027812
-0.02775
-0.027687
-0.027687
-0.027687
-0.0275
-0.027625
-0.02775
-0.02775
-0.02775
-0.027625
-0.028188
-0.02775
-0.027687
-0.027687
-0.028063
-0.027937
-0.027625
-0.027625
-0.027625
-0.027375
-0.027687
-0.027687
-0.027687
-0.027875
-0.027875
-0.02775
-0.027687
-0.027937
-0.027875
-0.0275
-0.027438
-0.0275
-0.02775
-0.027875
-0.02775
-0.027687
-0.027812
-0.027875
-0.027563
-0.027563
-0.028063
-0.028188
-0.027875
-0.027875
-0.028
-0.027625
-0.028125
-0.02825
-0.028125
-0.027875
-0.027937
-0.02825
-0.027875
-0.028
-0.028063
-0.02825
-0.028313
-0.028063
-0.028063
-0.028
-0.028
-0.028313
-0.0285
-0.028438
-0.027875
-0.028375
-0.02825
-0.02825
-0.028313
-0.028438
-0.02825
-0.028125
-0.028125
-0.028125
-0.02825
-0.0285
-0.028
-0.028625
-0.028438
-0.02825
-0.028438
-0.028
-0.028438
-0.02825
-0.028438
-0.028375
-0.028125
-0.028313
-0.0285
-0.028313
-0.028313
-0.028375
-0.028188
-0.027875
-0.028125
-0.02825
-0.028375
-0.028375
-0.028313
-0.028438
-0.028438
-0.0285
-0.028375
-0.028313
-0.028687
-0.028438
-0.028438
-0.028875
-0.028625
-0.028812
-0.028438
-0.02875
-0.02825
-0.028562
-0.028562
-0.029
-0.028562
-0.028937
-0.028625
-0.02875
-0.0285
-0.028562
-0.029063
-0.028625
-0.028937
-0.02925
-0.029125
-0.028875
-0.028687
-0.029
-0.02875
-0.028562
-0.028937
-0.029063
-0.02875
-0.0285
-0.028875
-0.029125
-0.02875
-0.028625
-0.028875
-0.02875
-0.02875
-0.028875
-0.029063
-0.02875
-0.02875
-0.028812
-0.029188
-0.02875
-0.029125
-0.029063
-0.02875
-0.028812
-0.029125
-0.029125
-0.029063
-0.029188
-0.02925
-0.029188
-0.029063
-0.029437
-0.029188
-0.028812
-0.028562
-0.028875
-0.029
-0.029188
-0.029063
-0.029063
-0.029125
-0.029125
-0.029313
-0.029313
-0.029313
-0.029063
-0.029313
-0.029313
-0.02925
-0.029625
-0.029687
-0.029562
-0.028937
-0.029313
-0.029437
-0.029437
-0.0295
-0.029687
-0.02975
-0.029375
-0.0295
-0.029437
-0.029375
-0.02925
-0.02975
-0.029625
-0.029812
-0.0295
-0.029625
-0.029687
-0.029812
-0.0295
-0.029687
-0.02975
-0.029812
-0.029687
-0.029562
-0.029938
-0.0295
-0.029625
-0.029812
-0.029875
-0.029562
-0.029625
-0.029812
-0.029812
-0.029562
-0.029875
-0.029938
-0.029437
-0.02975
-0.029938
-0.029812
-0.029625
-0.03
-0.029938
-0.029562
-0.029687
-0.029938
-0.029875
-0.029938
-0.029875
-0.02975
-0.029938
-0.029687
-0.029938
-0.030125
-0.03
-0.029812
-0.030188
-0.030125
-0.03025
-0.029875
-0.030125
-0.029812
-0.0305
-0.030188
-0.03025
-0.029875
-0.030063
-0.030313
-0.029938
-0.029938
-0.030375
-0.030375
-0.03025
-0.030063
-0.030125
-0.030313
-0.030125
-0.030437
-0.030437
-0.0305
-0.030313
-0.03025
-0.030125
-0.030188
-0.030313
-0.030375
-0.030375
-0.0305
-0.030188
-0.03025
-0.030437
-0.030125
-0.0305
-0.0305
-0.03075
-0.030188
-0.030437
-0.030562
-0.03025
-0.030687
-0.030375
-0.030437
-0.030375
-0.0305
-0.030375
-0.030625
-0.030313
-0.030437
-0.030625
-0.030875
-0.030437
-0.03025
-0.030562
-0.030375
-0.03025
-0.030562
-0.030875
-0.030813
-0.030375
-0.030625
-0.030437
-0.03075
-0.030687
-0.030938
-0.030687
-0.030813
-0.030875
-0.03075
-0.030813
-0.031
-0.030875
-0.030813
-0.030875
-0.031063
-0.030813
-0.030813
-0.03075
-0.031063
-0.031188
-0.030562
-0.031
-0.030875
-0.030875
-0.030938
-0.030938
-0.031312
-0.03125
-0.030813
-0.031063
-0.031188
-0.030813
-0.030813
-0.031
-0.03125
-0.03075
-0.031125
-0.03125
-0.030938
-0.031
-0.031125
-0.031312
-0.030813
-0.031063
-0.031
-0.03075
-0.031063
-0.031
-0.031125
-0.030938
-0.030875
-0.030938
-0.03125
-0.030875
-0.030938
-0.031375
-0.031063
-0.031
-0.031
-0.03125
-0.031063
-0.031
-0.031063
-0.031063
-0.031188
-0.030813
-0.031188
-0.031125
-0.031125
-0.03125
-0.031562
-0.031063
-0.031125
-0.031125
-0.031312
-0.03125
-0.031312
-0.031375
-0.031312
-0.031063
-0.031063
-0.031312
-0.0315
-0.03125
-0.031063
-0.031562
-0.0315
-0.03125
-0.03125
-0.031562
-0.031375
-0.03125
-0.031625
-0.031438
-0.031063
-0.0315
-0.031562
-0.031438
-0.03125
-0.031375
-0.03175
-0.031688
-0.03125
-0.031375
-0.031312
-0.031375
-0.03125
-0.031438
-0.031438
-0.031312
-0.031063
-0.031625
-0.031312
-0.031312
-0.031312
-0.031813
-0.031375
-0.031312
-0.031375
-0.031438
-0.031312
-0.031562
-0.031562
-0.031312
-0.031063
-0.031438
-0.031188
-0.031375
-0.03125
-0.031438
-0.0315
-0.031375
-0.031125
-0.031438
-0.031375
-0.031312
-0.03125
-0.0315
-0.031562
-0.031438
-0.031625
-0.031438
-0.031375
-0.031375
-0.031688
-0.031312
-0.031813
-0.03125
-0.031562
-0.031125
-0.031562
-0.031562
-0.031312
-0.031312
-0.031688
-0.031375
-0.031438
-0.031312
-0.031562
-0.031063
-0.031125
-0.031063
-0.031063
-0.03125
-0.031063
-0.031063
-0.031063
-0.031188
-0.030875
-0.030875
-0.030813
-0.03075
-0.030687
-0.030813
-0.030938
-0.030375
-0.0305
-0.030625
-0.030687
-0.030687
-0.030375
-0.030562
-0.03
-0.030375
-0.030313
-0.030125
-0.030125
-0.030125
-0.030188
-0.029938
-0.030125
-0.029812
-0.029875
-0.029687
-0.0295
-0.029562
-0.029437
-0.029063
-0.029313
-0.02925
-0.029375
-0.029437
-0.029437
-0.029063
-0.029
-0.028875
-0.028812
-0.02875
-0.02875
-0.0285
-0.028687
-0.028438
-0.02825
-0.028
-0.028188
-0.027687
-0.027937
-0.027875
-0.027563
-0.027438
-0.027687
-0.027188
-0.027188
-0.027062
-0.027125
-0.02675
-0.0265
-0.0265
-0.026375
-0.026062
-0.025875
-0.025875
-0.025937
-0.025375
-0.025187
-0.025125
-0.025125
-0.02475
-0.024625
-0.02475
-0.024375
-0.024125
-0.02425
-0.023563
-0.023625
-0.023312
-0.023438
-0.022688
-0.022875
-0.022312
-0.0225
-0.02225
-0.022062
-0.022125
-0.021688
-0.021375
-0.021312
-0.021375
-0.02075
-0.020562
-0.020562
-0.020437
-0.019562
-0.019625
-0.0195
-0.019063
-0.019
-0.01875
-0.019063
-0.018562
-0.018188
-0.018188
-0.01775
-0.017625
-0.017313
-0.017438
-0.01725
-0.016812
-0.016562
-0.016313
-0.016125
-0.015937
-0.015687
-0.0155
-0.014937
-0.01475
-0.015125
-0.014562
-0.01425
-0.014
-0.014187
-0.013438
-0.013375
-0.013125
-0.013
-0.012812
-0.012563
-0.012563
-0.01225
-0.0115
-0.011312
-0.011375
-0.011125
-0.010812
-0.0105
-0.010125
-0.010188
-0.0096875
-0.009625
-0.0091875
-0.0090625
-0.0089375
-0.008875
-0.0083125
-0.00825
-0.008
-0.007875
-0.0075
-0.0075
-0.0075
-0.00675
-0.006375
-0.0066875
-0.00625
-0.0059375
-0.0058125
-0.0056875
-0.0055
-0.0050625
-0.004625
-0.0046875
-0.0046875
-0.0043125
-0.004
-0.0039375
-0.003875
-0.003625
-0.0034375
-0.0030625
-0.0030625
-0.003
-0.002625
-0.002625
-0.002375
-0.0019375
-0.0019375
-0.0018125
-0.0015625
-0.001375
-0.001375
-0.000875
-0.000625
-0.0006875
-0.000875
-0.0005
-0.0001875
-6.25e-05
6.25e-05
0.0004375
0.0004375
0.000625
0.00075
0.0006875
0.0010625
0.0011875
0.001375
0.001375
0.0018125
0.0020625
0.001875
0.0020625
0.002125
0.0021875
0.002625
0.002625
0.003
0.003125
0.003
0.0033125
0.0035625
0.00375
0.0039375
0.00375
0.004125
0.004125
0.0045625
0.0045625
0.0045625
0.0048125
0.00475
0.0046875
0.005
0.00525
0.0050625
0.0050625
0.0055
0.00575
0.0058125
0.00575
0.005875
0.0061875
0.00625
0.0060625
0.006125
0.0065
0.00625
0.006375
0.0064375
0.0065
0.0065
0.006875
0.0066875
0.00675
0.00725
0.007
0.006875
0.007125
0.007625
0.007375
0.007375
0.0073125
0.0076875
0.0075625
0.0071875
0.008125
0.0081875
0.00775
0.0080625
0.0081875
0.0084375
0.0083125
0.0081875
0.0081875
0.0089375
0.0085
0.00825
0.0085
0.0086875
0.0088125
0.0088125
0.0088125
0.009125
0.0090625
0.0093125
0.009125
0.009125
0.009375
0.009375
0.009375
0.0095
0.0098125
0.0093125
0.009375
0.0094375
0.0099375
0.0096875
0.0094375
0.0095625
0.0095625
0.0098125
0.0098125
0.00975
0.010125
0.0098125
0.009875
0.0099375
0.0099375
0.0098125
0.009625
0.010062
0.010125
0.01
0.0099375
0.0099375
0.0099375
0.0099375
0.010125
0.0105
0.010062
0.0099375
0.010188
0.009875
0.010062
0.010062
0.010125
0.010188
0.010062
0.0098125
0.0099375
0.010188
0.010125
0.010313
0.010062
0.010125
0.0105
0.010437
0.01025
0.010125
0.010188
0.010875
0.010375
0.010313
0.010313
0.010375
0.010125
0.01
0.010688
0.010313
0.010375
0.0105
0.01025
0.010375
0.010437
0.0105
0.010313
0.010188
0.0105
0.010375
0.010062
0.010437
0.010375
0.010437
0.010313
0.010062
0.010437
0.010625
0.010375
0.009875
0.010375
0.0105
0.010437
0.010437
0.010313
0.010125
0.010125
0.01
0.010437
0.010062
0.009875
0.010375
0.010062
0.010313
0.010125
0.009875
0.010125
0.009875
0.0098125
0.0096875
0.00975
0.0098125
0.01
0.009875
0.0098125
0.0099375
0.009875
0.009625
0.0098125
0.00975
0.0098125
0.0095625
0.0095625
0.009875
0.0098125
0.0096875
0.009375
0.0098125
0.009375
0.009375
0.0095
0.0093125
0.0093125
0.009125
0.009375
0.0095625
0.00925
0.009125
0.0093125
0.00925
0.009125
0.0095625
0.0093125
0.0094375
0.0094375
0.0093125
0.0091875
0.009125
0.0091875
0.0089375
0.0090625
0.0090625
0.0089375
0.0090625
0.0088125
0.0088125
0.0091875
0.0088125
0.008875
0.008875
0.00875
0.0083125
0.0086875
0.0086875
0.0086875
0.0086875
0.0081875
0.008375
